ch_0,ch_1,ch_2,ch_3,ch_4,ch_5,ch_6,ch_7
-19177.965,-27962.55,1505.8799999999999,-3790.7999999999997,-5283.764999999999,-17669.43,-515.61,5401.17
-19089.54,-27892.305,1580.085,-3699.81,-5273.054999999999,-17719.829999999998,-558.9449999999999,5439.105
-19036.89,-27700.515,1921.4099999999999,-3580.1099999999997,-5337.72,-17874.405,-715.23,5399.505
-18962.774999999998,-27546.93,2084.535,-3545.37,-5418.54,-18006.255,-805.05,5415.21
-18897.39,-27480.78,2044.1699999999998,-3594.7799999999997,-5488.245,-18099.495,-720.405,5489.505
-18968.67,-27477.495,2060.8199999999997,-3585.915,-5455.08,-18074.295,-626.9399999999999,5415.66
-19218.915,-27656.64,2019.4199999999998,-3526.065,-5267.34,-17783.73,-497.205,5269.05
-19471.005,-27699.39,2098.5299999999997,-3315.7799999999997,-5031.72,-17488.71,-499.815,5022.945
-19580.94,-27637.289999999997,2224.575,-3132.6749999999997,-4850.595,-17318.655,-486.18,4882.23
-19511.73,-27688.32,2201.985,-3142.4849999999997,-4845.6449999999995,-17316.315,-405.495,5008.365
-19460.745,-27764.774999999998,2223.36,-3128.85,-4843.71,-17379.809999999998,-376.065,5118.929999999999
-19264.725,-27801.315,2055.96,-3222.0899999999997,-4803.795,-17284.77,-538.425,5251.7699999999995
-18905.579999999998,-27531.989999999998,2062.575,-3375.9449999999997,-5037.705,-17562.465,-695.385,5431.724999999999
-18756.63,-27481.545,1999.8899999999999,-3582.45,-5296.275,-17870.13,-647.595,5606.55
-18783.63,-27627.39,1835.28,-3732.975,-5396.22,-17929.575,-630.99,5649.57
-18879.975,-27769.86,1650.105,-3859.74,-5499.09,-17985.735,-603.405,5645.34
-19069.605,-27905.895,1602.36,-3848.355,-5509.304999999999,-17977.725,-545.13,5542.695
-19232.73,-28068.21,1554.2549999999999,-3789.6299999999997,-5410.62,-17835.975,-479.115,5435.235
-19327.725,-28098.855,1498.0049999999999,-3700.62,-5246.415,-17632.575,-491.03999999999996,5327.865
-19324.8,-27928.844999999998,1630.395,-3595.185,-5137.5599999999995,-17527.545,-560.25,5249.5199999999995
-19346.489999999998,-27856.079999999998,1857.96,-3475.575,-5076.2699999999995,-17495.415,-563.4449999999999,5192.505
-19350.945,-27944.82,1841.085,-3466.305,-5067.405,-17486.954999999998,-478.16999999999996,5225.13
-19294.965,-27869.535,1905.345,-3479.4449999999997,-5144.355,-17581.095,-476.72999999999996,5239.3949999999995
-19235.835,-27685.62,2064.735,-3384.225,-5112.315,-17584.92,-518.22,5222.745
-19223.864999999998,-27699.434999999998,2011.185,-3346.02,-5012.505,-17479.845,-461.96999999999997,5264.37
-19106.594999999998,-27771.704999999998,1845.855,-3485.97,-5080.23,-17540.595,-431.64,5350.32
-19021.545,-27684.045,1933.02,-3486.24,-5156.955,-17661.6,-529.02,5374.755
-19006.469999999998,-27647.774999999998,1996.245,-3444.12,-5157.945,-17691.704999999998,-579.06,5374.44
-19024.965,-27658.17,1910.835,-3567.87,-5253.84,-17774.73,-539.685,5369.085
-19274.985,-27755.91,1864.845,-3542.805,-5162.849999999999,-17657.28,-458.82,5201.73
-19417.725,-27885.914999999997,1733.5349999999999,-3546.9449999999997,-5052.0599999999995,-17476.515,-361.62,5129.099999999999
-19409.13,-27913.23,1741.095,-3471.75,-4949.955,-17349.66,-323.955,5129.1449999999995
-19400.85,-27879.93,1829.0249999999999,-3353.22,-4817.925,-17245.98,-302.84999999999997,5090.535
-19078.155,-27643.004999999997,2004.57,-3338.055,-4908.78,-17407.305,-431.685,5197.86
-18775.35,-27297.989999999998,2238.8849999999998,-3222.855,-4939.29,-17531.954999999998,-696.1949999999999,5328.0
-18584.415,-27191.655,2356.02,-3206.205,-5021.1449999999995,-17694.72,-759.4649999999999,5530.455
-18547.965,-27315.27,2237.7599999999998,-3328.29,-5165.73,-17836.92,-470.15999999999997,5688.179999999999
-18740.565,-27483.254999999997,2134.125,-3398.265,-5197.23,-17764.02,-227.51999999999998,5621.8949999999995
-18708.165,-27282.645,2330.37,-3264.48,-5209.83,-17756.64,-298.71,5538.51
-18557.325,-27013.004999999997,2561.805,-3109.095,-5198.264999999999,-17795.43,-434.565,5524.29
-18425.43,-26824.995,2725.56,-3039.39,-5256.405,-17977.454999999998,-359.775,5616.855
-18558.719999999998,-26887.995,2767.41,-2935.575,-5051.34,-17841.69,-231.345,5589.855
-18895.635,-27299.879999999997,2454.5699999999997,-2917.845,-4595.625,-17166.329999999998,28.89,5500.9349999999995
-18991.53,-27486.45,2239.9649999999997,-2896.065,-4269.555,-16664.94,120.24,5487.84
-18892.755,-27405.045,2319.255,-2800.98,-4194.18,-16589.97,112.455,5554.98
-18691.605,-27340.245,2470.545,-2711.79,-4277.385,-16750.215,67.095,5672.025
-18394.065,-27162.405,2491.065,-2831.22,-4491.45,-17017.065,73.575,5852.745
-18277.739999999998,-27044.55,2373.66,-3028.68,-4666.59,-17190.809999999998,148.32,5965.469999999999
-18356.715,-27084.78,2360.3849999999998,-3006.9449999999997,-4616.639999999999,-17112.78,226.39499999999998,5949.179999999999
-18521.774999999998,-27170.19,2420.8199999999997,-2795.94,-4382.775,-16874.145,327.735,5844.554999999999
-18736.155,-27198.0,2536.4249999999997,-2558.205,-4067.5049999999997,-16533.989999999998,464.445,5624.01
-18720.719999999998,-27155.34,2589.795,-2388.33,-3837.69,-16299.855,559.935,5579.01
-18483.975,-27031.14,2632.9049999999997,-2297.52,-3800.97,-16318.439999999999,521.28,5775.48
-18305.73,-26763.254999999997,2967.345,-2271.87,-3909.7349999999997,-16512.12,392.625,5910.12
-18095.355,-26581.59,3148.74,-2311.9649999999997,-4037.625,-16660.934999999998,396.81,5983.335
-18151.695,-26666.91,2998.5299999999997,-2331.63,-3987.765,-16566.795,502.56,5998.905
-18262.26,-26745.254999999997,2889.3599999999997,-2322.72,-3895.56,-16437.87,552.8249999999999,5998.545
-18256.59,-26713.89,2976.8849999999998,-2267.1,-3803.67,-16328.295,553.77,6025.545
-18096.704999999998,-26601.57,3081.825,-2199.1949999999997,-3753.27,-16297.38,556.1999999999999,6057.495
-18021.195,-26531.864999999998,3165.705,-2120.265,-3741.435,-16309.484999999999,621.495,6083.82
-17794.26,-26369.235,3280.455,-2077.47,-3843.0,-16471.079999999998,676.89,6219.675
-17610.434999999998,-26246.43,3402.495,-1993.1399999999999,-3843.4049999999997,-16535.295,707.535,6360.84
-17362.035,-26115.704999999998,3397.8599999999997,-2053.215,-3903.2549999999997,-16614.315,766.035,6566.085
-17212.77,-25963.289999999997,3387.15,-2068.38,-3839.805,-16527.78,913.86,6686.955
-17130.645,-25882.785,3514.0049999999997,-1945.0349999999999,-3716.5049999999997,-16393.68,1027.575,6714.945
-17014.59,-25798.274999999998,3592.2149999999997,-1774.3049999999998,-3585.15,-16290.585,1022.31,6711.84
-16872.704999999998,-25672.86,3643.785,-1631.61,-3504.24,-16279.695,1016.145,6789.33
-16792.875,-25507.485,4070.43,-1459.215,-3539.25,-16470.27,1029.87,6855.974999999999
-16762.05,-25458.524999999998,4209.4349999999995,-1386.405,-3466.62,-16462.305,1194.345,6903.179999999999
-16974.405,-25639.245,4049.145,-1330.245,-3180.7799999999997,-16031.835,1409.76,6765.03
-17122.23,-25817.265,3949.785,-1299.465,-3053.79,-15819.885,1676.655,6683.67
-17052.704999999998,-25837.425,3934.71,-1274.6699999999998,-3032.055,-15754.005,1649.205,6673.5
-16937.73,-25715.295,4042.08,-1183.4099999999999,-2968.65,-15688.08,1532.07,6688.755
-16658.864999999998,-25481.114999999998,4221.945,-1149.2549999999999,-2939.67,-15722.82,1554.48,6843.42
-16558.245,-25425.809999999998,4368.6449999999995,-1001.9699999999999,-2742.795,-15570.18,1841.2649999999999,6946.695
-16702.155,-25556.309999999998,4419.18,-752.265,-2306.25,-15036.795,2110.59,6871.41
-16654.184999999998,-25601.76,4513.7699999999995,-580.68,-2057.985,-14740.83,2190.105,6883.469999999999
-16486.425,-25548.524999999998,4678.785,-440.505,-1966.1399999999999,-14681.295,2177.415,7008.615
-16144.244999999999,-25368.885,4818.6449999999995,-418.77,-2067.255,-14828.039999999999,2173.185,7220.384999999999
-15990.75,-25364.61,4859.6849999999995,-369.18,-2074.185,-14848.74,2287.62,7359.344999999999
-15961.455,-25449.03,4879.53,-271.44,-1938.645,-14661.045,2506.5899999999997,7444.755
-15968.789999999999,-25423.02,4986.315,-113.265,-1757.52,-14413.904999999999,2676.285,7453.259999999999
-15979.68,-25247.565,5191.2,69.975,-1573.47,-14183.144999999999,2805.705,7429.59
-15970.14,-25098.614999999998,5415.075,328.005,-1288.845,-13882.095,2860.4249999999997,7379.955
-16039.439999999999,-25039.934999999998,5696.91,592.245,-1038.825,-13628.025,2991.7349999999997,7310.429999999999
-16045.695,-25094.43,5879.07,815.76,-800.505,-13332.015,3066.93,7243.425
-15816.914999999999,-25142.219999999998,5878.844999999999,957.1949999999999,-556.65,-12979.529999999999,3111.255,7393.1849999999995
-15290.82,-24924.465,5870.385,864.5849999999999,-688.41,-13068.404999999999,3162.7349999999997,7764.165
-14816.295,-24785.19,5865.705,662.67,-1001.43,-13381.289999999999,3405.33,8225.685
-14633.73,-24773.715,5943.33,600.66,-1140.93,-13502.609999999999,3615.8849999999998,8459.369999999999
-14769.269999999999,-24954.57,5930.235,732.645,-940.7249999999999,-13236.3,3792.1949999999997,8418.06
-14854.455,-25141.14,5981.445,934.785,-639.63,-12889.215,3932.91,8375.13
-14754.42,-25130.295,6107.625,1119.645,-417.69,-12651.66,3947.085,8404.11
-14588.189999999999,-24913.89,6387.4349999999995,1296.315,-320.715,-12585.15,3882.7349999999997,8416.574999999999
-14479.83,-24745.14,6830.099999999999,1553.94,-211.815,-12543.39,3788.865,8375.895
-14419.529999999999,-24702.704999999998,7089.21,1724.6699999999998,-140.76,-12491.279999999999,3809.3399999999997,8361.404999999999
-14363.189999999999,-24815.204999999998,7113.15,1809.855,-37.26,-12350.07,3948.705,8444.97
-14310.72,-24913.53,7106.4,1845.8999999999999,42.93,-12208.859999999999,4073.1299999999997,8554.185
-14206.59,-24935.489999999998,7061.4,1815.21,89.595,-12083.355,4222.3949999999995,8707.32
-14173.83,-25006.5,7099.83,1881.945,201.105,-11961.314999999999,4252.455,8732.295
-14123.385,-25041.105,7155.719999999999,2004.21,372.015,-11739.824999999999,4250.88,8731.89
-14046.39,-25058.879999999997,7092.855,2033.37,446.445,-11590.154999999999,4347.2699999999995,8754.48
-14074.74,-25047.135,7175.88,2059.245,456.705,-11551.005,4620.014999999999,8791.244999999999
-14128.064999999999,-24981.795,7477.605,2234.52,516.1949999999999,-11534.49,4701.465,8745.975
-13977.314999999999,-24847.065,7670.295,2351.115,529.1999999999999,-11530.755,4609.755,8825.13
-13768.83,-24780.645,7750.71,2312.595,429.57,-11638.439999999999,4489.5599999999995,8946.09
-13573.574999999999,-24799.725,7697.025,2289.645,466.155,-11615.13,4443.75,9080.324999999999
-13479.255,-24866.415,7590.375,2265.255,479.205,-11567.07,4595.985,9226.71
-13413.105,-24903.54,7416.045,2150.145,392.445,-11546.55,4927.95,9384.255
-13515.48,-24976.395,7497.8099999999995,2247.93,562.14,-11279.744999999999,5025.014999999999,9308.34
-13585.994999999999,-24901.11,7803.134999999999,2433.105,709.155,-11110.455,4854.87,9172.755
-13591.935,-24972.434999999998,7767.8099999999995,2501.505,881.4599999999999,-10884.914999999999,4940.91,9235.215
-13618.125,-25143.165,7628.355,2483.2799999999997,977.31,-10703.925,5135.04,9289.215
-13624.019999999999,-25225.2,7521.705,2478.645,1062.54,-10506.33,5233.724999999999,9301.68
-13539.779999999999,-25232.715,7548.12,2549.835,1164.0149999999999,-10308.465,5277.51,9349.244999999999
-13387.859999999999,-25259.04,7574.849999999999,2619.585,1204.6499999999999,-10214.1,5316.255,9450.675
-13266.539999999999,-25189.829999999998,7748.28,2691.99,1206.6299999999999,-10173.96,5293.3949999999995,9512.505
-13061.025,-24893.64,7960.7699999999995,2736.27,1168.02,-10177.515,5242.724999999999,9559.935
-12968.144999999999,-24672.42,8133.255,2857.095,1206.0449999999998,-10116.18,5235.4349999999995,9544.5
-12973.23,-24744.465,8156.5199999999995,2968.83,1325.25,-9936.539999999999,5330.16,9567.855
-12844.394999999999,-24792.254999999997,8125.2,2986.56,1374.2549999999999,-9818.369999999999,5425.785,9697.005
-12780.855,-24868.53,8069.849999999999,2989.4849999999997,1430.415,-9662.22,5471.01,9749.115
-12807.63,-24927.165,8107.38,3082.545,1561.86,-9433.17,5499.719999999999,9719.46
-13042.08,-25072.785,8116.469999999999,3268.4849999999997,1851.705,-9038.925,5638.23,9560.205
-13326.93,-25163.73,8251.244999999999,3492.225,2151.9,-8655.48,5720.085,9318.06
-13294.845,-25160.445,8364.105,3538.71,2199.285,-8560.845,5757.705,9370.08
-12803.355,-25034.445,8320.185,3447.495,2024.55,-8741.34,5733.764999999999,9763.785
-12332.385,-24881.309999999998,8419.59,3368.25,1775.7,-9066.375,5584.094999999999,10072.35
-11869.289999999999,-24498.36,8544.6,3161.205,1405.62,-9506.115,5500.035,10290.555
-11722.32,-24388.829999999998,8469.494999999999,3094.83,1307.565,-9573.164999999999,5570.91,10389.285
-11749.59,-24391.44,8451.315,3204.315,1416.915,-9409.455,5429.61,10305.585
-11744.865,-24326.594999999998,8483.625,3226.77,1526.5349999999999,-9269.324999999999,5398.47,10334.52
-11842.02,-24479.864999999998,8374.005,3159.495,1483.7849999999999,-9371.115,5885.37,10470.51
-11966.895,-24561.855,8451.945,3243.645,1588.95,-9253.71,6056.1449999999995,10397.565
-12116.925,-24702.975,8419.185,3342.1949999999997,1860.435,-8810.19,6031.125,10246.05
-12214.395,-24882.57,8318.789999999999,3396.06,1973.115,-8641.619999999999,6005.295,10142.595
-12182.355,-24940.53,8313.255,3452.67,1999.53,-8633.565,6019.335,10125.63
-12050.685,-25029.54,8213.805,3403.4849999999997,1946.2949999999998,-8722.08,6119.955,10209.51
-11876.039999999999,-24943.59,8247.779999999999,3379.6349999999998,1927.485,-8805.285,6118.785,10271.565
-11806.154999999999,-24719.175,8497.619999999999,3402.045,1873.845,-8948.115,6005.745,10234.89
-11734.064999999999,-24665.579999999998,8576.55,3409.065,1877.085,-8987.445,5898.195,10232.595
-11647.71,-24649.739999999998,8637.21,3429.6299999999997,1911.5549999999998,-8967.645,5845.5,10256.67
-11673.765,-24695.684999999998,8633.654999999999,3485.115,1924.1999999999998,-8977.455,5868.2699999999995,10208.07
-11723.49,-24745.77,8619.795,3564.4049999999997,1998.81,-8917.965,5958.36,10164.869999999999
-11785.994999999999,-24801.795,8636.85,3628.935,2092.275,-8837.01,6029.325,10144.395
-11965.185,-24893.64,8708.13,3729.915,2234.7,-8678.115,6038.91,10040.445
-11906.73,-24940.53,8486.73,3610.935,2217.4649999999997,-8642.565,6122.07,10125.225
-11805.93,-24911.325,8390.97,3525.48,2192.67,-8644.815,6133.59,10157.039999999999
-11614.814999999999,-24747.344999999998,8456.265,3530.295,2107.2599999999998,-8761.949999999999,6032.295,10193.535
-11508.39,-24555.555,8710.83,3546.4049999999997,1968.48,-8920.664999999999,5899.139999999999,10270.71
