ch_0,ch_1,ch_2,ch_3,ch_4,ch_5,ch_6,ch_7
6719.445,-17142.885,9573.84,-15602.085,1545.2549999999999,74286.81,101556.54,10800.135
6665.759999999999,-17216.01,9496.035,-15688.439999999999,1426.905,74383.425,101706.20999999999,10774.98
6595.875,-17226.27,9573.66,-15411.15,1497.51,74505.78,101894.985,10657.08
6648.57,-17171.19,9636.795,-15235.109999999999,1597.2749999999999,74609.73,102038.44499999999,10635.885
6688.44,-17165.25,9617.085,-15253.019999999999,1579.77,74703.015,102186.26999999999,10672.92
6617.429999999999,-17197.335,9670.68,-15069.689999999999,1621.7549999999999,74826.54,102410.01,10629.585
6508.98,-17264.295,9728.91,-14783.22,1792.935,74947.00499999999,102593.51999999999,10570.23
6507.495,-17240.399999999998,9754.109999999999,-14746.455,1904.22,75060.18,102772.845,10549.125
6547.41,-17208.72,9753.705,-14834.699999999999,1910.07,75170.52,102924.765,10574.01
6585.525,-17234.595,9679.455,-15025.904999999999,1824.21,75283.83,103117.00499999999,10618.965
6621.03,-17256.915,9595.529999999999,-15276.689999999999,1713.78,75378.19499999999,103250.87999999999,10666.26
6609.0599999999995,-17259.255,9569.385,-15452.64,1621.98,75469.545,103397.58,10634.895
6621.57,-17237.475,9574.965,-15448.949999999999,1517.8049999999998,75562.065,103539.915,10641.914999999999
6603.66,-17213.579999999998,9655.425,-15190.064999999999,1583.37,75658.86,103707.94499999999,10622.609999999999
6605.19,-17185.545,9710.82,-15087.824999999999,1679.9399999999998,75746.61,103849.29,10618.83
6675.4349999999995,-17111.16,9727.92,-15199.515,1624.5,75811.00499999999,103948.155,10676.88
6628.545,-17167.545,9660.42,-15246.675,1556.235,75869.28,104056.92,10678.095
6632.19,-17165.475,9686.16,-15171.705,1538.46,75945.645,104191.11,10655.865
6593.67,-17190.18,9729.855,-15045.074999999999,1601.145,76017.825,104302.62,10617.525
6505.11,-17267.625,9680.895,-15073.65,1629.0,76100.22,104442.93,10591.425
6484.41,-17235.225,9720.18,-15020.324999999999,1678.0049999999999,76192.29,104589.0,10579.725
6565.455,-17182.665,9717.57,-15122.205,1648.1699999999998,76274.91,104734.17,10624.41
6702.795,-17127.899999999998,9678.734999999999,-15432.164999999999,1529.7749999999999,76367.25,104879.43,10706.625
6829.785,-17065.079999999998,9659.609999999999,-15659.55,1388.385,76469.895,105023.205,10787.895
6821.1449999999995,-17102.25,9617.67,-15640.47,1207.62,76573.125,105197.76,10800.539999999999
6624.855,-17221.95,9692.82,-15074.414999999999,1433.835,76702.86,105380.28,10652.13
6538.545,-17281.98,9724.904999999999,-14832.81,1694.79,76820.355,105527.97,10595.654999999999
6527.745,-17281.26,9700.289999999999,-14961.195,1689.21,76905.36,105663.555,10596.06
6526.259999999999,-17282.97,9653.445,-15091.154999999999,1652.895,76990.5,105817.40999999999,10584.81
6588.63,-17224.695,9637.56,-15268.814999999999,1591.695,77076.855,105944.625,10617.074999999999
6661.3949999999995,-17148.87,9640.71,-15432.57,1494.135,77158.70999999999,106068.78,10660.77
6639.66,-17128.079999999998,9684.135,-15382.89,1420.2,77246.28,106213.14,10637.505
6534.8099999999995,-17171.73,9764.369999999999,-15087.285,1506.735,77357.025,106358.94,10585.755
6419.969999999999,-17271.945,9722.52,-15015.51,1612.71,77473.485,106539.795,10530.494999999999
6456.735,-17248.364999999998,9726.66,-15189.255,1624.365,77573.205,106683.705,10501.695
6592.634999999999,-17149.364999999998,9767.744999999999,-15306.57,1545.84,77649.3,106796.51999999999,10545.435
6661.17,-17117.235,9764.055,-15281.64,1412.5049999999999,77700.69,106904.11499999999,10628.595
6589.844999999999,-17183.114999999998,9739.89,-15148.89,1416.195,77744.97,106979.805,10658.699999999999
6559.875,-17247.015,9625.095,-15329.474999999999,1438.11,77827.545,107111.385,10658.385
6589.9349999999995,-17232.75,9564.164999999999,-15598.935,1322.055,77932.08,107291.51999999999,10671.57
6592.545,-17176.454999999998,9653.4,-15467.625,1289.1599999999999,78038.81999999999,107466.93,10639.755
6584.94,-17137.35,9789.705,-15167.115,1428.03,78177.465,107666.90999999999,10587.869999999999
6592.275,-17167.5,9772.965,-15160.904999999999,1502.37,78316.37999999999,107872.29,10584.135
6584.67,-17197.875,9710.055,-15315.435,1513.1699999999998,78422.22,108019.845,10577.88
6619.32,-17162.595,9714.555,-15478.695,1424.0249999999999,78512.22,108177.61499999999,10600.244999999999
6617.25,-17178.39,9713.16,-15499.17,1286.685,78574.995,108293.625,10647.09
6525.045,-17285.715,9672.57,-15342.029999999999,1275.2549999999999,78637.59,108424.305,10604.07
6480.45,-17313.39,9688.095,-15119.775,1386.945,78721.425,108547.33499999999,10562.355
6370.92,-17364.51,9698.13,-14960.789999999999,1477.35,78812.235,108700.33499999999,10483.92
6298.11,-17361.135,9768.015,-14814.18,1603.4399999999998,78917.58,108885.19499999999,10417.77
6321.6449999999995,-17318.7,9787.859999999999,-14881.5,1646.73,79035.20999999999,109049.12999999999,10423.935
6363.9,-17302.59,9744.21,-15055.92,1594.7549999999999,79151.175,109220.805,10460.52
6405.57,-17295.48,9708.66,-15222.42,1541.745,79256.025,109392.97499999999,10504.619999999999
6464.835,-17267.579999999998,9692.46,-15386.22,1447.56,79347.19499999999,109527.525,10547.414999999999
6473.655,-17262.315,9700.244999999999,-15400.664999999999,1358.685,79419.87,109648.305,10545.885
6460.155,-17293.41,9646.02,-15409.755,1309.725,79492.995,109808.14499999999,10544.085
6516.045,-17275.454999999998,9620.64,-15382.394999999999,1325.07,79578.045,109956.64499999999,10560.869999999999
6516.0,-17283.915,9617.805,-15439.859999999999,1320.12,79672.635,110102.76,10554.435
6522.705,-17265.915,9653.22,-15411.869999999999,1346.175,79781.625,110252.205,10538.324999999999
6513.929999999999,-17244.315,9705.06,-15298.605,1351.935,79906.815,110429.90999999999,10532.654999999999
6416.594999999999,-17311.32,9742.41,-15093.99,1467.225,80037.62999999999,110598.12,10508.76
6334.335,-17433.495,9624.779999999999,-15256.17,1468.1699999999998,80154.495,110771.325,10495.845
6359.264999999999,-17422.2,9582.57,-15420.914999999999,1377.495,80260.47,110910.78,10508.445
6329.429999999999,-17418.329999999998,9604.26,-15371.055,1391.58,80367.12,111067.245,10449.359999999999
6390.8099999999995,-17340.165,9658.935,-15378.84,1410.12,80460.58499999999,111202.425,10458.09
6513.21,-17244.45,9682.065,-15482.34,1296.405,80525.52,111299.94,10559.835
6516.495,-17240.94,9692.145,-15409.26,1203.345,80575.11,111398.12999999999,10590.885
6411.554999999999,-17299.845,9750.824999999999,-15118.244999999999,1344.96,80649.94499999999,111526.155,10515.51
6403.679999999999,-17293.95,9772.065,-15124.904999999999,1444.0049999999999,80742.105,111663.98999999999,10515.824999999999
6412.86,-17299.71,9730.44,-15353.55,1359.135,80833.86,111789.18,10540.529999999999
6348.465,-17363.204999999998,9683.955,-15427.71,1301.715,80933.58,111924.405,10495.574999999999
6327.2699999999995,-17390.204999999998,9654.795,-15429.375,1254.0149999999999,81048.19499999999,112070.295,10460.744999999999
6337.485,-17362.17,9699.255,-15310.394999999999,1337.175,81179.37,112254.795,10421.505
6371.955,-17304.704999999998,9743.039999999999,-15381.269999999999,1408.5449999999998,81314.81999999999,112434.65999999999,10415.654999999999
6425.19,-17259.03,9759.779999999999,-15531.525,1311.7949999999998,81417.735,112576.68,10456.875
6470.009999999999,-17183.835,9871.605,-15367.23,1257.57,81512.55,112713.795,10462.185
6369.344999999999,-17257.59,9924.66,-14986.619999999999,1409.1299999999999,81602.685,112845.69,10418.76
6286.05,-17400.915,9795.645,-15057.539999999999,1457.73,81673.56,112956.705,10447.56
6333.525,-17379.63,9775.17,-15195.465,1405.1699999999998,81741.87,113052.64499999999,10493.55
6336.09,-17387.73,9736.02,-15389.279999999999,1314.81,81815.4,113169.735,10504.8
6335.46,-17379.495,9729.99,-15532.695,1228.4099999999999,81908.01,113311.70999999999,10496.835
6361.785,-17327.114999999998,9785.654999999999,-15531.885,1222.83,82008.495,113463.45,10473.345
6416.009999999999,-17271.045,9814.23,-15641.189999999999,1181.655,82125.54,113647.68,10481.76
6405.66,-17303.715,9775.125,-15764.22,1068.975,82257.075,113843.97,10499.085
6304.275,-17431.695,9720.494999999999,-15608.295,1070.685,82379.295,114012.72,10469.43
6212.025,-17481.239999999998,9796.275,-15288.57,1225.8899999999999,82486.305,114184.39499999999,10391.31
6249.33,-17409.645,9898.02,-15150.285,1331.82,82579.95,114318.94499999999,10400.67
6247.665,-17388.045,9937.08,-15166.8,1353.51,82660.095,114443.45999999999,10400.67
6269.535,-17341.965,9984.195,-15283.71,1364.8049999999998,82744.37999999999,114576.705,10403.64
6317.91,-17306.82,9967.005,-15560.505,1269.0449999999998,82838.97,114725.87999999999,10434.869999999999
6367.995,-17294.895,9903.105,-15830.775,980.91,82932.03,114857.55,10505.16
6271.5599999999995,-17340.03,9982.17,-15440.805,1036.125,83042.37,115033.00499999999,10438.785
6085.575,-17464.005,9999.359999999999,-15108.66,1291.77,83164.905,115215.20999999999,10311.029999999999
5992.965,-17495.28,9986.76,-15154.244999999999,1333.0349999999999,83288.97,115407.81,10230.93
6001.245,-17456.94,10024.83,-15182.73,1339.9199999999998,83396.565,115558.92,10238.984999999999
6048.0,-17473.005,9993.15,-15364.89,1297.395,83491.69499999999,115702.37999999999,10303.335
6131.61,-17472.149999999998,9971.73,-15614.595,1178.685,83577.285,115855.29,10362.375
6157.53,-17480.295,9975.51,-15707.115,1081.8899999999999,83664.62999999999,115996.635,10384.02
6116.264999999999,-17510.489999999998,10012.32,-15490.574999999999,1126.7549999999999,83738.16,116115.12,10354.77
6150.915,-17479.98,10040.94,-15360.93,1184.445,83804.715,116214.345,10395.225
6195.465,-17443.89,10047.105,-15341.76,1235.52,83892.105,116349.25499999999,10416.015
6238.9349999999995,-17416.395,10018.574999999999,-15461.414999999999,1181.475,83985.48,116505.36,10426.095
6248.25,-17351.28,10098.18,-15368.894999999999,1199.835,84092.44499999999,116656.01999999999,10393.154999999999
6244.785,-17310.51,10192.32,-15219.0,1285.7849999999999,84210.39,116817.795,10366.56
6205.23,-17332.47,10188.945,-15254.055,1317.51,84335.08499999999,116987.04,10351.98
6120.945,-17412.39,10118.97,-15402.195,1267.605,84454.11,117143.055,10330.199999999999
6039.764999999999,-17483.76,10086.029999999999,-15449.715,1238.2649999999999,84546.81,117280.215,10279.71
6035.804999999999,-17488.53,10098.225,-15454.08,1233.855,84636.58499999999,117414.72,10274.67
6077.205,-17464.14,10101.465,-15524.865,1197.7649999999999,84722.04,117550.03499999999,10313.955
6133.05,-17422.335,10108.484999999999,-15628.095,1136.655,84801.69,117677.51999999999,10371.779999999999
6150.78,-17410.005,10106.955,-15741.135,1071.135,84881.16,117806.985,10410.39
6184.98,-17383.5,10099.035,-15957.855,993.735,84963.555,117935.595,10434.914999999999
6280.92,-17325.495,10116.18,-16129.71,857.16,85057.56,118084.31999999999,10483.785
6262.335,-17348.805,10134.99,-16001.865,758.745,85158.9,118255.86,10472.445
6108.075,-17453.385,10221.885,-15421.005,992.5649999999999,85271.08499999999,118417.76999999999,10356.795
6103.53,-17462.565,10257.119999999999,-15297.93,1187.415,85387.095,118582.92,10342.484999999999
6142.995,-17454.555,10208.609999999999,-15513.705,1125.945,85484.025,118728.36,10378.17
6119.46,-17431.515,10268.955,-15439.859999999999,1100.8799999999999,85590.405,118888.73999999999,10329.66
6058.3949999999995,-17433.09,10385.46,-15102.539999999999,1275.7949999999998,85701.95999999999,119052.855,10266.21
6071.13,-17422.605,10396.35,-15087.555,1326.78,85795.73999999999,119203.56,10304.505
6065.639999999999,-17441.19,10369.619999999999,-15187.859999999999,1310.355,85890.555,119352.28499999999,10310.265
6069.014999999999,-17446.454999999998,10351.035,-15287.49,1267.02,85973.76,119501.235,10319.4
6072.57,-17443.17,10324.98,-15443.055,1188.09,86043.42,119613.19499999999,10348.785
6138.8099999999995,-17399.655,10287.225,-15729.119999999999,1084.4099999999999,86116.31999999999,119726.50499999999,10397.835
6186.0599999999995,-17400.059999999998,10223.19,-16029.09,903.15,86187.15,119866.31999999999,10451.654999999999
6098.49,-17489.385,10176.66,-16096.545,712.395,86267.87999999999,120014.19,10424.475
6023.25,-17489.655,10306.755,-15635.25,845.1,86358.95999999999,120160.89,10321.335
6046.38,-17460.63,10378.619999999999,-15430.32,1010.79,86453.415,120306.87,10311.885
6030.2699999999995,-17481.195,10387.035,-15403.23,1029.87,86555.655,120471.20999999999,10298.609999999999
6003.2699999999995,-17469.675,10467.585,-15219.63,1218.51,86685.20999999999,120651.61499999999,10241.865
6069.195,-17409.96,10468.98,-15473.835,1185.7949999999998,86798.025,120804.56999999999,10283.4
6054.255,-17441.91,10412.775,-15650.234999999999,1071.54,86897.16,120969.81,10284.705
6015.87,-17505.765,10360.935,-15578.595,998.1899999999999,86989.86,121111.155,10283.355
6000.389999999999,-17489.835,10442.295,-15276.824999999999,1129.095,87088.905,121276.935,10247.984999999999
5968.98,-17503.829999999998,10464.345,-15258.599999999999,1210.32,87181.01999999999,121426.605,10226.88
5946.885,-17505.18,10457.55,-15324.39,1179.45,87246.855,121541.04,10208.789999999999
5917.7699999999995,-17456.445,10512.045,-15253.695,1220.5349999999999,87319.08,121651.56,10190.565
5898.96,-17426.97,10540.619999999999,-15263.955,1229.625,87405.345,121797.495,10189.664999999999
5904.315,-17454.645,10509.21,-15379.515,1170.405,87475.05,121949.14499999999,10228.994999999999
5975.775,-17453.565,10476.99,-15537.51,1100.97,87533.14499999999,122068.17,10303.244999999999
6067.755,-17422.965,10448.279999999999,-15742.125,1040.985,87607.305,122185.305,10368.81
6135.165,-17412.614999999998,10430.73,-15880.455,887.2199999999999,87685.83,122328.135,10408.68
6146.82,-17425.62,10465.875,-15679.125,840.1949999999999,87778.665,122459.22,10412.82
6101.82,-17453.475,10508.94,-15389.55,986.4,87878.34,122604.435,10382.895
6087.6449999999995,-17453.024999999998,10511.82,-15452.865,1086.2549999999999,87982.155,122756.31,10367.01
6110.6849999999995,-17450.19,10462.859999999999,-15721.244999999999,1005.2099999999999,88082.81999999999,122904.18,10361.43
6117.4349999999995,-17457.84,10453.185,-15743.115,888.48,88184.83499999999,123045.525,10364.445
6045.21,-17504.415,10500.255,-15462.359999999999,969.75,88308.58499999999,123219.0,10306.529999999999
5998.32,-17527.905,10526.984999999999,-15340.14,1137.375,88416.315,123382.215,10257.164999999999
6033.6449999999995,-17486.235,10524.33,-15535.484999999999,1090.17,88513.2,123507.135,10269.585
