ch_0,ch_1,ch_2,ch_3,ch_4,ch_5,ch_6,ch_7
3035.7,-30203.28,-24185.07,-2944.98,-184.545,-72804.555,-15631.92,11740.455
3029.22,-30215.114999999998,-24194.204999999998,-2955.555,-195.84,-72813.69,-15627.015,11737.17
3031.9649999999997,-30211.965,-24187.905,-2948.9849999999997,-190.98,-72807.25499999999,-15625.305,11738.564999999999
3045.555,-30201.3,-24177.69,-2941.83,-184.14,-72795.645,-15612.345,11750.49
3047.94,-30200.94,-24172.379999999997,-2933.955,-169.73999999999998,-72787.275,-15606.9,11750.895
3042.6749999999997,-30206.969999999998,-24180.12,-2942.73,-170.14499999999998,-72797.58,-15609.285,11745.18
3039.66,-30207.87,-24180.885,-2952.27,-179.595,-72824.12999999999,-15612.119999999999,11742.164999999999
3045.5099999999998,-30199.364999999998,-24167.61,-2948.895,-179.23499999999999,-72842.12999999999,-15602.894999999999,11748.824999999999
3040.065,-30207.195,-24180.885,-2960.8199999999997,-192.51,-72860.94,-15605.234999999999,11744.73
3036.375,-30214.17,-24190.649999999998,-2971.305,-205.2,-72852.56999999999,-15601.724999999999,11746.71
3043.98,-30205.62,-24179.579999999998,-2965.5899999999997,-198.405,-72832.545,-15596.865,11755.395
3038.22,-30211.965,-24176.114999999998,-2967.12,-176.17499999999998,-72820.665,-15600.869999999999,11749.365
3024.27,-30223.35,-24174.989999999998,-2960.8199999999997,-142.38,-72799.73999999999,-15608.789999999999,11735.055
3032.37,-30208.364999999998,-24154.92,-2934.99,-119.205,-72777.015,-15605.369999999999,11741.76
3052.7999999999997,-30186.719999999998,-24138.18,-2918.115,-106.875,-72774.62999999999,-15586.92,11764.215
3052.755,-30189.42,-24143.579999999998,-2925.585,-114.345,-72789.39,-15586.064999999999,11763.27
3045.5099999999998,-30199.364999999998,-24153.614999999998,-2938.545,-130.45499999999998,-72812.925,-15589.305,11758.41
3050.595,-30192.57,-24146.504999999997,-2934.72,-129.285,-72816.20999999999,-15579.585,11764.035
3044.565,-30194.19,-24148.215,-2943.3599999999997,-138.87,-72818.81999999999,-15581.699999999999,11760.84
3042.63,-30195.765,-24148.62,-2954.6099999999997,-148.23,-72828.18,-15591.06,11758.904999999999
3051.9,-30186.045,-24132.78,-2935.035,-120.24,-72808.605,-15583.095,11768.22
3042.225,-30194.19,-24135.84,-2936.6099999999997,-104.03999999999999,-72795.15,-15574.545,11765.16
3049.83,-30190.05,-24132.149999999998,-2940.345,-97.785,-72804.105,-15564.285,11778.029999999999
3059.415,-30180.87,-24128.19,-2947.68,-103.545,-72833.895,-15561.269999999999,11784.06
3062.475,-30179.475,-24132.555,-2961.045,-118.125,-72860.4,-15551.775,11787.435
3057.165,-30183.93,-24135.165,-2967.165,-120.69,-72871.785,-15555.105,11783.52
3055.68,-30189.78,-24151.635,-2992.8599999999997,-160.515,-72919.215,-15554.519999999999,11784.06
3065.49,-30185.414999999997,-24168.375,-3024.45,-210.32999999999998,-72972.54,-15546.644999999999,11795.039999999999
3062.25,-30194.864999999998,-24192.855,-3071.43,-258.39,-73005.84,-15540.615,11797.965
3054.375,-30193.11,-24165.09,-3054.375,-216.045,-72968.715,-15554.699999999999,11785.275
3037.545,-30201.75,-24141.105,-3014.415,-138.24,-72887.84999999999,-15564.869999999999,11763.585
3024.18,-30207.015,-24107.085,-2949.795,-58.724999999999994,-72784.44,-15561.99,11745.945
3022.1099999999997,-30202.289999999997,-24088.004999999997,-2928.6,-30.645,-72721.26,-15550.83,11744.955
3040.515,-30183.795,-24075.18,-2928.87,-21.285,-72723.645,-15538.14,11765.699999999999
3052.035,-30171.059999999998,-24062.129999999997,-2920.14,-18.54,-72740.97,-15524.775,11779.47
3057.435,-30174.12,-24068.565,-2935.755,-35.55,-72767.34,-15517.08,11786.085
3059.055,-30175.965,-24073.245,-2947.68,-46.17,-72782.81999999999,-15515.144999999999,11789.01
3057.525,-30176.954999999998,-24073.29,-2951.37,-44.64,-72786.285,-15516.314999999999,11788.244999999999
3066.165,-30172.14,-24069.465,-2956.5899999999997,-44.01,-72789.435,-15502.769999999999,11800.439999999999
3061.845,-30181.59,-24078.239999999998,-2972.88,-55.44,-72803.06999999999,-15502.635,11796.885
3068.595,-30175.289999999997,-24068.07,-2969.2349999999997,-50.129999999999995,-72800.28,-15496.019999999999,11802.779999999999
3064.995,-30173.309999999998,-24057.989999999998,-2964.1949999999997,-45.405,-72802.75499999999,-15503.175,11798.685
3072.015,-30168.899999999998,-24053.04,-2965.14,-49.32,-72803.205,-15490.89,11811.869999999999
3066.21,-30177.315,-24062.355,-2975.49,-60.074999999999996,-72809.45999999999,-15490.394999999999,11810.295
3073.185,-30170.655,-24055.559999999998,-2969.595,-50.355,-72799.83,-15480.494999999999,11820.42
3062.835,-30181.995,-24066.719999999998,-2984.7149999999997,-47.97,-72801.675,-15484.769999999999,11814.795
3063.5099999999998,-30179.43,-24064.605,-2988.0899999999997,-22.814999999999998,-72794.79,-15479.369999999999,11821.095
3054.7799999999997,-30185.64,-24070.815,-3001.455,-31.5,-72814.275,-15484.14,11817.63
3054.7349999999997,-30179.385,-24060.465,-2998.35,-27.855,-72814.185,-15478.199999999999,11822.805
3059.2799999999997,-30169.98,-24048.09,-2991.42,-11.969999999999999,-72800.37,-15463.8,11834.955
3056.04,-30174.614999999998,-24049.53,-3001.68,-15.165,-72809.73,-15463.394999999999,11834.279999999999
3059.775,-30169.215,-24038.01,-2999.295,-4.8149999999999995,-72801.315,-15457.68,11836.395
3065.13,-30164.355,-24029.73,-3000.5099999999998,0.8999999999999999,-72796.36499999999,-15440.939999999999,11843.73
3062.3399999999997,-30176.055,-24039.629999999997,-3019.545,-13.59,-72820.53,-15432.66,11846.295
3066.795,-30176.235,-24035.85,-3023.685,-10.934999999999999,-72823.23,-15419.97,11852.91
3052.71,-30186.945,-24044.67,-3038.355,-23.265,-72834.525,-15441.75,11834.955
3063.555,-30170.114999999998,-24021.09,-3019.815,3.195,-72807.39,-15450.615,11838.285
3063.915,-30171.555,-24021.315,-3029.22,3.8699999999999997,-72802.485,-15452.64,11839.095
3071.6099999999997,-30166.289999999997,-24015.6,-3033.4049999999997,9.45,-72796.905,-15443.865,11847.15
3069.495,-30170.43,-24022.71,-3048.345,7.92,-72806.44499999999,-15420.869999999999,11848.32
3068.415,-30166.02,-24015.555,-3046.545,17.91,-72803.16,-15416.369999999999,11847.51
3076.4249999999997,-30158.37,-24009.254999999997,-3049.02,20.61,-72807.93,-15414.75,11857.185
3090.1949999999997,-30150.765,-24004.89,-3052.125,22.544999999999998,-72813.19499999999,-15400.08,11880.404999999999
3083.805,-30158.145,-24013.17,-3069.72,11.879999999999999,-72823.815,-15406.244999999999,11877.255
3092.22,-30145.86,-23994.405,-3059.2799999999997,27.54,-72813.23999999999,-15401.07,11883.555
3081.06,-30154.59,-23997.6,-3068.145,26.955,-72816.12,-15402.42,11875.365
3075.21,-30159.135,-23998.004999999997,-3073.275,32.76,-72813.19499999999,-15397.425,11872.529999999999
3076.4249999999997,-30157.92,-23995.665,-3076.92,36.72,-72819.62999999999,-15395.13,11875.904999999999
3079.305,-30153.239999999998,-23991.84,-3079.395,41.894999999999996,-72821.52,-15387.164999999999,11882.205
3069.855,-30161.43,-24000.795,-3098.52,15.299999999999999,-72840.69,-15392.519999999999,11877.3
3070.4849999999997,-30161.969999999998,-24000.66,-3105.9,7.694999999999999,-72849.15,-15390.18,11881.664999999999
3075.165,-30155.355,-23992.695,-3097.7999999999997,29.43,-72848.745,-15379.74,11892.689999999999
3071.295,-30158.864999999998,-24000.075,-3107.16,38.475,-72873.94499999999,-15381.765,11892.689999999999
3080.52,-30146.489999999998,-23992.695,-3114.3599999999997,36.495,-72887.715,-15377.849999999999,11903.445
3082.275,-30141.629999999997,-23985.09,-3127.545,24.165,-72908.28,-15376.904999999999,11903.22
3072.555,-30149.145,-23984.504999999997,-3142.395,31.049999999999997,-72913.095,-15386.265,11894.4
3077.145,-30141.989999999998,-23969.295,-3147.48,57.96,-72869.48999999999,-15381.765,11903.805
3062.25,-30147.39,-23956.155,-3149.2799999999997,69.66,-72820.53,-15387.255,11890.35
3046.41,-30157.965,-23954.579999999998,-3151.755,78.975,-72781.47,-15393.824999999999,11878.38
3058.6949999999997,-30147.614999999998,-23947.335,-3157.6949999999997,93.825,-72778.635,-15382.305,11894.535
3063.6,-30147.03,-23951.565,-3180.015,80.505,-72813.06,-15376.949999999999,11900.205
3062.79,-30157.92,-23976.719999999998,-3231.765,42.839999999999996,-72860.355,-15380.865,11903.13
3062.88,-30168.27,-23998.274999999998,-3279.555,18.27,-72896.04,-15374.519999999999,11906.189999999999
3076.74,-30158.055,-23987.879999999997,-3295.125,9.495,-72922.905,-15366.42,11917.529999999999
3089.25,-30137.265,-23950.395,-3279.4649999999997,51.21,-72899.64,-15370.83,11922.255
3093.39,-30126.51,-23923.17,-3271.995,93.55499999999999,-72857.655,-15374.564999999999,11919.33
3085.2,-30130.829999999998,-23914.89,-3278.6549999999997,129.375,-72796.41,-15376.994999999999,11908.935
3087.99,-30125.699999999997,-23899.995,-3276.315,155.16,-72748.035,-15358.769999999999,11917.26
3089.6099999999997,-30129.074999999997,-23902.065,-3304.7549999999997,137.655,-72763.605,-15349.68,11924.145
3096.3599999999997,-30122.19,-23890.77,-3312.855,147.64499999999998,-72763.65,-15339.51,11933.595
3092.7599999999998,-30126.239999999998,-23891.399999999998,-3332.115,141.435,-72775.845,-15346.439999999999,11928.015
3094.785,-30125.43,-23890.364999999998,-3350.79,132.70499999999998,-72785.52,-15347.25,11932.109999999999
3097.98,-30124.89,-23890.905,-3369.285,126.36,-72796.635,-15345.449999999999,11937.375
3106.935,-30116.52,-23882.129999999997,-3378.4649999999997,130.41,-72795.59999999999,-15334.064999999999,11947.365
3106.2599999999998,-30120.254999999997,-23882.76,-3397.8599999999997,126.27,-72806.48999999999,-15336.269999999999,11950.605
3090.33,-30136.86,-23897.204999999998,-3430.395,111.285,-72826.37999999999,-15343.83,11941.695
3085.875,-30140.37,-23898.555,-3450.24,106.02,-72830.43,-15340.32,11939.76
3085.92,-30138.3,-23896.17,-3463.515,105.255,-72836.55,-15349.859999999999,11934.18
3095.415,-30124.664999999997,-23880.285,-3460.6349999999998,121.22999999999999,-72828.765,-15356.609999999999,11940.975
3096.18,-30125.385,-23881.094999999998,-3474.765,122.67,-72833.48999999999,-15360.75,11944.35
3096.585,-30126.42,-23879.204999999998,-3484.665,127.845,-72829.53,-15347.295,11951.01
3114.3599999999997,-30112.245,-23865.57,-3485.6549999999997,139.095,-72819.135,-15309.404999999999,11980.845
3104.955,-30120.614999999998,-23875.155,-3511.62,124.19999999999999,-72837.94499999999,-15306.84,11966.895
3099.105,-30123.765,-23874.344999999998,-3528.45,120.10499999999999,-72843.795,-15309.63,11961.72
3105.315,-30121.559999999998,-23871.645,-3541.365,119.42999999999999,-72839.79,-15293.744999999999,11975.13
3101.085,-30126.015,-23874.704999999998,-3558.285,112.58999999999999,-72843.25499999999,-15291.585,11973.824999999999
3097.4849999999997,-30126.555,-23871.015,-3566.0699999999997,116.685,-72840.645,-15289.515,11972.744999999999
3091.095,-30130.605,-23871.059999999998,-3577.23,117.17999999999999,-72845.81999999999,-15296.445,11968.199999999999
3097.305,-30126.6,-23863.454999999998,-3582.72,121.63499999999999,-72845.50499999999,-15288.255,11976.39
3108.42,-30116.43,-23850.945,-3581.46,129.555,-72840.78,-15277.59,11988.27
3105.045,-30119.129999999997,-23850.855,-3591.0899999999997,128.20499999999998,-72844.37999999999,-15277.41,11987.145
3101.085,-30124.754999999997,-23854.05,-3607.515,119.61,-72851.08499999999,-15280.244999999999,11980.98
3093.48,-30132.315,-23858.37,-3624.8849999999998,110.33999999999999,-72862.02,-15287.939999999999,11971.755
3100.9049999999997,-30123.989999999998,-23847.254999999997,-3625.245,118.61999999999999,-72854.86499999999,-15279.84,11982.15
3104.19,-30119.265,-23841.719999999998,-3628.305,123.345,-72848.79,-15273.404999999999,11991.6
3100.6349999999998,-30119.67,-23844.69,-3643.02,117.08999999999999,-72858.285,-15274.71,11993.76
3104.055,-30115.53,-23844.915,-3656.79,111.69,-72868.23,-15272.279999999999,11995.92
3100.005,-30109.5,-23836.86,-3658.365,118.53,-72863.685,-15266.564999999999,11983.904999999999
3095.415,-30109.23,-23834.7,-3663.0899999999997,120.195,-72864.18,-15259.904999999999,11985.705
3091.23,-30115.844999999998,-23839.829999999998,-3674.52,115.19999999999999,-72870.48,-15259.68,11986.605
3087.4049999999997,-30120.93,-23844.825,-3686.67,109.71,-72875.25,-15256.89,11988.27
3083.13,-30123.809999999998,-23846.175,-3694.455,108.81,-72880.155,-15256.755,11987.414999999999
3088.935,-30114.629999999997,-23835.645,-3691.98,119.74499999999999,-72878.805,-15250.904999999999,11991.645
3093.795,-30109.59,-23829.39,-3693.5099999999998,122.39999999999999,-72886.31999999999,-15254.414999999999,11993.355
3107.3399999999997,-30099.914999999997,-23817.465,-3686.31,122.535,-72883.98,-15241.05,12007.35
3100.005,-30110.129999999997,-23824.754999999997,-3698.5049999999997,110.88,-72896.265,-15243.074999999999,12001.5
3100.455,-30112.785,-23822.37,-3701.745,117.945,-72893.87999999999,-15239.25,12004.154999999999
3092.4449999999997,-30121.02,-23830.065,-3713.04,117.72,-72900.045,-15246.314999999999,11995.695
3081.375,-30126.69,-23837.94,-3724.515,112.5,-72906.25499999999,-15256.71,11984.58
3088.4849999999997,-30116.969999999998,-23829.3,-3719.6549999999997,115.695,-72906.56999999999,-15242.715,11999.115
3100.68,-30108.195,-23819.489999999998,-3717.855,111.86999999999999,-72906.56999999999,-15215.355,12025.935
3084.66,-30124.53,-23837.355,-3749.31,78.075,-72935.145,-15230.97,12007.71
3084.975,-30122.19,-23832.899999999998,-3751.785,72.53999999999999,-72940.455,-15232.949999999999,12004.515
3093.705,-30111.93,-23819.579999999998,-3746.52,80.19,-72929.43,-15222.869999999999,12015.585
3101.22,-30102.57,-23808.015,-3750.165,81.72,-72920.06999999999,-15212.474999999999,12024.855
3088.08,-30111.21,-23813.37,-3760.245,103.545,-72891.98999999999,-15220.845,12009.779999999999
3081.825,-30112.425,-23816.114999999998,-3773.6549999999997,97.24499999999999,-72883.98,-15217.47,12006.18
3082.23,-30109.23,-23812.379999999997,-3775.995,98.46,-72901.75499999999,-15210.314999999999,12007.89
3080.16,-30115.71,-23821.649999999998,-3790.89,102.645,-72915.165,-15200.73,12010.275
3070.71,-30127.05,-23836.95,-3816.45,85.32,-72936.675,-15198.75,12008.654999999999
3064.725,-30132.09,-23840.73,-3823.515,88.74,-72937.75499999999,-15205.14,12005.955
3061.575,-30131.64,-23831.684999999998,-3815.055,110.655,-72911.7,-15205.769999999999,12003.21
3062.295,-30126.105,-23813.73,-3799.7549999999997,125.91,-72896.265,-15225.39,11992.5
3086.19,-30101.67,-23782.004999999997,-3772.44,150.255,-72865.665,-15220.439999999999,12007.125
3094.2,-30100.86,-23783.399999999998,-3790.62,129.96,-72874.8,-15194.97,12021.975
3074.22,-30121.965,-23803.559999999998,-3822.75,107.82,-72892.305,-15200.324999999999,12006.72
3076.785,-30114.495,-23788.89,-3810.69,121.99499999999999,-72890.81999999999,-15209.55,12006.945
3107.475,-30085.469999999998,-23754.285,-3787.4249999999997,137.20499999999998,-72877.77,-15187.23,12038.085
3114.81,-30081.465,-23748.03,-3791.835,136.98,-72877.095,-15169.904999999999,12049.109999999999
3085.785,-30111.48,-23774.04,-3826.395,104.31,-72911.655,-15195.105,12019.635
