ch_0,ch_1,ch_2,ch_3,ch_4,ch_5,ch_6,ch_7
-90348.12,-106287.345,-83491.29,-92156.175,-92561.08499999999,-106865.775,-46788.795,-74848.635
-90374.265,-106321.59,-83511.54,-92164.23,-92556.855,-106856.90999999999,-46777.814999999995,-74840.4
-90425.06999999999,-106360.29,-83551.185,-92197.485,-92571.93,-106873.33499999999,-46741.725,-74831.48999999999
-90447.525,-106367.805,-83578.36499999999,-92225.79,-92584.34999999999,-106886.79,-46712.835,-74812.77
-90454.185,-106383.555,-83595.23999999999,-92245.05,-92598.12,-106899.3,-46689.57,-74805.12
-90451.44,-106410.015,-83594.565,-92233.215,-92584.215,-106877.43,-46683.09,-74807.37
-90443.7,-106394.76,-83590.69499999999,-92224.62,-92573.28,-106863.65999999999,-46695.6,-74813.535
-90417.465,-106363.305,-83566.845,-92220.795,-92591.14499999999,-106890.525,-46722.284999999996,-74824.965
-90404.19,-106368.75,-83549.06999999999,-92213.415,-92609.81999999999,-106920.26999999999,-46750.86,-74841.93
-90387.18,-106307.685,-83519.145,-92198.87999999999,-92606.4,-106915.095,-46786.095,-74853.45
-90343.215,-106283.205,-83497.77,-92168.81999999999,-92575.44,-106880.985,-46812.869999999995,-74845.395
-90351.22499999999,-106332.075,-83528.145,-92182.36499999999,-92577.555,-106885.26,-46802.7,-74832.61499999999
-90408.285,-106380.315,-83561.67,-92217.23999999999,-92596.31999999999,-106905.105,-46763.82,-74825.775
-90446.48999999999,-106386.75,-83574.315,-92234.025,-92603.51999999999,-106910.73,-46735.29,-74821.72499999999
-90459.765,-106396.65,-83593.53,-92241.62999999999,-92601.94499999999,-106908.93,-46713.509999999995,-74815.425
-90458.37,-106380.94499999999,-83603.61,-92247.435,-92604.87,-106911.315,-46704.869999999995,-74817.62999999999
-90465.93,-106344.765,-83591.28,-92241.58499999999,-92602.485,-106905.33,-46719.945,-74824.37999999999
-90420.12,-106269.885,-83523.69,-92178.09,-92559.105,-106853.22,-46772.009999999995,-74822.265
-90333.045,-106262.73,-83465.685,-92113.605,-92507.67,-106798.185,-46827.36,-74823.39
-90352.62,-106384.05,-83520.045,-92144.87999999999,-92534.08499999999,-106829.325,-46832.265,-74842.965
-90346.23,-106322.715,-83493.94499999999,-92137.00499999999,-92529.855,-106824.87,-46838.744999999995,-74840.31
-90340.065,-106286.04,-83460.87,-92110.275,-92501.37,-106797.33,-46842.075,-74825.91
-90306.0,-106292.51999999999,-83446.73999999999,-92091.06,-92468.51999999999,-106767.765,-46831.005,-74791.08
-90424.215,-106377.525,-83546.145,-92197.89,-92556.315,-106870.905,-46766.97,-74791.305
-90424.935,-106372.17,-83569.635,-92236.36499999999,-92597.805,-106912.935,-46735.875,-74788.69499999999
-90425.385,-106416.315,-83611.305,-92260.125,-92618.37,-106928.50499999999,-46718.415,-74793.105
-90434.11499999999,-106395.20999999999,-83607.20999999999,-92254.095,-92622.23999999999,-106927.47,-46730.655,-74803.86
-90426.51,-106369.965,-83584.395,-92237.715,-92617.73999999999,-106923.28499999999,-46760.58,-74812.36499999999
-90400.815,-106336.39499999999,-83538.54,-92199.42,-92591.14499999999,-106891.605,-46804.68,-74820.19499999999
-90401.94,-106358.175,-83539.845,-92194.37999999999,-92583.315,-106881.03,-46827.225,-74826.675
-90395.64,-106331.89499999999,-83529.09,-92182.41,-92569.905,-106866.72,-46845.045,-74819.745
-90445.23,-106362.855,-83568.555,-92222.55,-92595.87,-106899.03,-46827.36,-74813.76
-90488.205,-106410.23999999999,-83592.315,-92235.465,-92591.91,-106886.06999999999,-46803.33,-74803.5
-90533.295,-106454.025,-83599.425,-92222.14499999999,-92560.59,-106845.48,-46778.445,-74787.48
-90547.01999999999,-106476.48,-83619.72,-92216.47499999999,-92550.375,-106836.56999999999,-46755.9,-74780.81999999999
-90476.685,-106399.17,-83634.345,-92246.22,-92589.345,-106888.455,-46753.244999999995,-74781.855
-90397.125,-106339.455,-83610.98999999999,-92270.79,-92641.59,-106948.89,-46769.22,-74787.39
-90385.425,-106378.515,-83609.235,-92266.245,-92653.37999999999,-106956.0,-46788.075,-74795.895
-90362.745,-106395.61499999999,-83573.775,-92221.73999999999,-92625.56999999999,-106918.33499999999,-46829.205,-74797.47
-90386.19,-106386.48,-83565.855,-92215.845,-92622.69,-106913.34,-46853.82,-74805.03
-90358.425,-106340.94,-83549.43,-92201.58,-92611.125,-106900.875,-46877.31,-74799.405
-90374.355,-106350.165,-83548.395,-92207.385,-92612.7,-106903.39499999999,-46876.77,-74793.105
-90424.89,-106384.14,-83585.06999999999,-92238.25499999999,-92625.61499999999,-106914.64499999999,-46844.595,-74788.155
-90470.295,-106411.59,-83620.08,-92263.76999999999,-92639.565,-106927.065,-46808.505,-74777.67
-90485.81999999999,-106433.775,-83633.22,-92268.72,-92637.855,-106920.315,-46784.34,-74768.895
-90472.275,-106437.78,-83630.205,-92257.875,-92624.265,-106900.515,-46782.945,-74762.50499999999
-90476.37,-106446.105,-83642.355,-92268.36,-92637.54,-106914.19499999999,-46788.255,-74774.16
-90476.86499999999,-106423.01999999999,-83622.87,-92252.97,-92641.095,-106919.685,-46819.755,-74787.705
-90465.705,-106376.12999999999,-83579.58,-92225.97,-92630.79,-106909.29,-46863.72,-74794.77
-90473.94,-106381.17,-83590.33499999999,-92241.98999999999,-92645.325,-106926.75,-46884.825,-74799.22499999999
-90466.11,-106370.09999999999,-83581.515,-92230.065,-92632.905,-106910.09999999999,-46909.215,-74792.52
-90478.98,-106437.87,-83619.45,-92261.295,-92646.26999999999,-106925.12999999999,-46889.64,-74784.105
-90460.08,-106456.905,-83630.34,-92271.015,-92647.125,-106924.36499999999,-46872.945,-74768.76
-90511.37999999999,-106452.62999999999,-83657.565,-92307.95999999999,-92682.98999999999,-106968.015,-46839.195,-74762.37
-90520.01999999999,-106471.53,-83659.68,-92302.01999999999,-92682.045,-106965.58499999999,-46819.08,-74751.20999999999
-90507.95999999999,-106488.045,-83665.17,-92304.54,-92681.86499999999,-106962.25499999999,-46813.14,-74749.31999999999
-90457.73999999999,-106436.7,-83658.555,-92313.315,-92699.37,-106982.415,-46830.104999999996,-74756.925
-90449.09999999999,-106389.09,-83646.765,-92310.705,-92708.415,-106991.775,-46860.255,-74769.97499999999
-90479.97,-106390.665,-83641.095,-92305.26,-92709.72,-106990.83,-46886.85,-74788.92
-90478.845,-106409.925,-83635.56,-92294.50499999999,-92701.08,-106975.665,-46915.74,-74794.59
-90439.29,-106395.165,-83590.875,-92254.14,-92668.00499999999,-106936.065,-46948.545,-74791.395
-90453.33,-106396.83,-83614.05,-92278.17,-92677.72499999999,-106953.705,-46944.0,-74784.69
-90513.765,-106448.355,-83675.47499999999,-92313.54,-92692.17,-106967.06999999999,-46907.909999999996,-74778.12
-90541.665,-106467.61499999999,-83667.78,-92295.45,-92669.89499999999,-106936.875,-46891.305,-74769.84
-90565.69499999999,-106507.305,-83678.355,-92285.14499999999,-92653.56,-106917.345,-46871.235,-74762.64
-90550.70999999999,-106512.39,-83662.785,-92285.45999999999,-92663.775,-106934.58,-46867.365,-74761.875
-90486.54,-106484.44499999999,-83654.415,-92295.72,-92687.94,-106965.405,-46881.405,-74763.765
-90497.565,-106459.73999999999,-83670.525,-92320.155,-92713.23,-106986.42,-46899.854999999996,-74777.31
-90518.76,-106469.81999999999,-83667.555,-92306.43,-92704.59,-106971.84,-46931.49,-74786.355
-90488.385,-106435.215,-83648.655,-92276.64,-92680.56,-106943.04,-46973.655,-74785.23
-90459.675,-106424.055,-83629.935,-92267.28,-92674.8,-106939.845,-46995.479999999996,-74782.53
-90496.17,-106456.635,-83660.48999999999,-92292.93,-92689.155,-106959.19499999999,-46987.65,-74772.855
-90520.245,-106442.90999999999,-83690.325,-92333.25,-92724.165,-106998.795,-46961.549999999996,-74760.3
-90545.985,-106486.01999999999,-83723.12999999999,-92366.14499999999,-92749.095,-107021.87999999999,-46924.74,-74755.8
-90533.43,-106505.055,-83724.39,-92359.70999999999,-92737.845,-107006.12999999999,-46910.655,-74746.8
-90552.285,-106522.83,-83721.42,-92354.625,-92734.73999999999,-107005.185,-46903.95,-74746.08
-90566.595,-106540.245,-83709.09,-92337.75,-92721.69,-106987.23,-46917.945,-74756.06999999999
-90539.14499999999,-106519.72499999999,-83692.08,-92328.84,-92722.455,-106988.805,-46950.705,-74767.86
-90517.86,-106487.90999999999,-83667.78,-92311.73999999999,-92719.75499999999,-106985.06999999999,-46987.424999999996,-74777.44499999999
-90519.075,-106470.22499999999,-83640.87,-92298.06,-92716.01999999999,-106981.78499999999,-47017.53,-74781.98999999999
-90501.61499999999,-106445.11499999999,-83642.48999999999,-92297.47499999999,-92714.985,-106985.025,-47034.45,-74779.47
-90512.55,-106472.06999999999,-83681.685,-92316.105,-92714.84999999999,-106983.045,-47027.88,-74770.69499999999
-90543.06,-106496.09999999999,-83711.205,-92352.105,-92732.67,-106999.83,-47001.015,-74757.78
-90578.34,-106550.055,-83742.48,-92396.925,-92773.17,-107048.295,-46960.515,-74746.44
-90566.055,-106526.205,-83743.92,-92400.84,-92780.73,-107055.54,-46948.185,-74736.62999999999
-90563.12999999999,-106543.305,-83748.645,-92376.405,-92759.535,-107027.81999999999,-46948.68,-74736.9
-90560.47499999999,-106534.845,-83731.31999999999,-92367.0,-92753.055,-107016.93,-46965.465,-74744.28
-90549.675,-106495.965,-83722.095,-92369.025,-92761.73999999999,-107025.3,-46996.47,-74755.215
-90543.69,-106480.44,-83715.705,-92365.47,-92767.185,-107030.655,-47031.39,-74768.175
-90538.2,-106469.73,-83705.67,-92363.22,-92774.745,-107038.89,-47061.18,-74782.125
-90544.545,-106474.40999999999,-83687.805,-92340.9,-92749.905,-107008.69499999999,-47089.17,-74778.25499999999
-90601.47,-106568.19,-83730.42,-92363.67,-92748.555,-107001.26999999999,-47074.95,-74770.425
-90623.11499999999,-106583.67,-83750.44499999999,-92363.12999999999,-92739.105,-106990.73999999999,-47078.055,-74767.905
-90616.14,-106608.69,-83780.955,-92385.81,-92757.465,-107020.8,-47053.53,-74757.285
-90614.295,-106609.995,-83792.925,-92425.275,-92802.69,-107079.03,-47009.475,-74746.215
-90603.45,-106598.205,-83803.59,-92444.985,-92825.415,-107099.45999999999,-46995.119999999995,-74744.01
-90602.685,-106583.84999999999,-83797.29,-92435.985,-92819.655,-107085.105,-47011.229999999996,-74751.93
-90585.045,-106535.7,-83750.44499999999,-92395.8,-92796.12,-107056.08,-47056.545,-74762.73
-90572.715,-106503.25499999999,-83726.37,-92373.345,-92780.055,-107038.89,-47101.14,-74774.11499999999
-90564.25499999999,-106514.37,-83730.69,-92373.93,-92777.22,-107035.515,-47130.39,-74775.15
-90571.095,-106540.875,-83725.605,-92357.685,-92760.525,-107016.93,-47148.75,-74773.62
-90593.73,-106536.915,-83726.145,-92369.295,-92761.875,-107019.675,-47157.255,-74774.52
-90612.94499999999,-106531.515,-83736.94499999999,-92399.805,-92777.89499999999,-107039.06999999999,-47137.14,-74764.75499999999
-90641.06999999999,-106573.40999999999,-83781.62999999999,-92423.97,-92779.965,-107040.42,-47103.795,-74754.72
-90659.565,-106619.44499999999,-83838.95999999999,-92450.51999999999,-92796.795,-107059.815,-47071.845,-74750.895
-90660.33,-106621.78499999999,-83824.245,-92440.39499999999,-92800.70999999999,-107065.665,-47076.03,-74747.34
-90675.94499999999,-106646.89499999999,-83813.48999999999,-92431.215,-92807.37,-107077.455,-47083.5,-74756.11499999999
-90653.31,-106600.00499999999,-83763.405,-92397.15,-92789.415,-107056.665,-47126.115,-74771.145
-90636.20999999999,-106533.495,-83757.95999999999,-92412.26999999999,-92809.89,-107082.18,-47164.994999999995,-74789.19
-90579.015,-106505.28,-83770.2,-92420.415,-92821.23,-107091.62999999999,-47201.174999999996,-74793.42
-90510.93,-106504.01999999999,-83736.72,-92382.61499999999,-92792.025,-107055.135,-47239.92,-74784.465
-90526.68,-106525.935,-83729.385,-92382.3,-92789.955,-107057.79,-47236.455,-74778.705
-90593.37,-106554.555,-83762.64,-92418.525,-92809.305,-107079.39,-47204.549999999996,-74773.845
-90635.355,-106589.745,-83817.18,-92448.26999999999,-92815.29,-107081.64,-47172.78,-74763.315
-90683.055,-106581.105,-83843.86499999999,-92472.885,-92823.61499999999,-107087.53499999999,-47150.055,-74759.12999999999
-90707.4,-106614.26999999999,-83839.86,-92468.79,-92818.44,-107074.39499999999,-47143.799999999996,-74760.56999999999
-90637.245,-106678.17,-83813.535,-92424.465,-92788.47,-107038.34999999999,-47169.99,-74757.51
-90598.905,-106683.25499999999,-83817.72,-92430.405,-92802.69,-107062.73999999999,-47198.34,-74754.855
-90601.785,-106584.705,-83792.06999999999,-92448.72,-92848.995,-107127.9,-47233.395,-74767.095
-90629.86499999999,-106567.965,-83791.395,-92449.035,-92858.84999999999,-107138.47499999999,-47260.935,-74782.125
-90599.805,-106536.78,-83753.50499999999,-92416.275,-92830.455,-107098.065,-47295.854999999996,-74785.455
-90613.575,-106536.915,-83772.98999999999,-92444.175,-92843.235,-107112.465,-47294.549999999996,-74787.12
-90637.37999999999,-106550.01,-83777.985,-92459.43,-92849.58,-107121.51,-47286.0,-74778.84
-90633.33,-106595.81999999999,-83792.745,-92447.37,-92827.665,-107092.215,-47268.405,-74760.84
-90653.84999999999,-106605.22499999999,-83817.855,-92462.715,-92830.095,-107095.455,-47236.86,-74749.77
-90651.015,-106628.67,-83817.765,-92448.405,-92818.935,-107081.14499999999,-47232.72,-74754.18
-90617.175,-106618.05,-83827.75499999999,-92436.39,-92809.98,-107071.33499999999,-47249.775,-74760.705
-90597.915,-106602.56999999999,-83805.48,-92428.37999999999,-92811.015,-107074.845,-47284.424999999996,-74772.36
-90607.815,-106619.715,-83789.19,-92419.065,-92808.765,-107070.165,-47314.665,-74788.69499999999
-90592.73999999999,-106572.19499999999,-83749.41,-92388.915,-92786.58,-107042.355,-47359.305,-74793.51
-90571.05,-106547.48999999999,-83746.62,-92369.7,-92764.035,-107021.83499999999,-47383.695,-74790.765
-90609.56999999999,-106568.37,-83783.11499999999,-92393.91,-92769.705,-107032.31999999999,-47377.845,-74782.62
-90641.79,-106586.45999999999,-83822.48999999999,-92448.36,-92801.51999999999,-107066.51999999999,-47350.215,-74775.555
-90638.595,-106581.64499999999,-83821.72499999999,-92453.44499999999,-92802.105,-107063.50499999999,-47334.689999999995,-74763.45
-90687.59999999999,-106631.45999999999,-83823.75,-92457.405,-92806.965,-107071.425,-47309.895,-74760.795
-90691.92,-106641.855,-83823.03,-92457.09,-92814.12,-107081.90999999999,-47304.494999999995,-74754.72
-90672.84,-106665.165,-83851.69499999999,-92469.33,-92834.235,-107107.245,-47310.345,-74758.635
-90605.87999999999,-106612.47,-83827.395,-92465.81999999999,-92848.545,-107118.18,-47360.79,-74765.47499999999
-90623.51999999999,-106614.9,-83812.77,-92453.84999999999,-92845.75499999999,-107114.175,-47416.905,-74785.14
-90637.37999999999,-106609.815,-83799.045,-92444.625,-92840.04,-107106.97499999999,-47450.475,-74792.7
-90626.31,-106578.54,-83803.05,-92443.14,-92830.095,-107094.51,-47455.92,-74780.325
-90639.315,-106593.705,-83839.68,-92458.935,-92835.94499999999,-107099.19,-47446.515,-74770.11
-90660.015,-106672.635,-83869.56,-92485.665,-92848.00499999999,-107115.165,-47418.615,-74758.36499999999
-90665.64,-106668.9,-83884.05,-92507.265,-92860.65,-107128.575,-47398.634999999995,-74741.355
-90716.4,-106708.00499999999,-83913.66,-92539.44,-92889.94499999999,-107162.955,-47368.845,-74737.17
-90736.65,-106716.915,-83931.795,-92560.76999999999,-92913.48,-107191.125,-47358.134999999995,-74737.305
-90735.48,-106660.70999999999,-83910.465,-92546.685,-92914.01999999999,-107190.135,-47383.244999999995,-74743.92
-90768.64499999999,-106678.08,-83908.08,-92541.95999999999,-92917.26,-107185.68,-47406.375,-74759.58
-90745.245,-106676.685,-83878.605,-92511.405,-92896.83,-107155.75499999999,-47455.83,-74770.37999999999
-90700.73999999999,-106659.09,-83860.69499999999,-92501.50499999999,-92888.50499999999,-107145.045,-47496.78,-74778.12
