ch_0,ch_1,ch_2,ch_3,ch_4,ch_5,ch_6,ch_7
-23887.665,-42159.284999999996,-23194.125,-30076.065,-24886.53,-30718.44,-16483.184999999998,-9788.22
-24001.155,-42208.604999999996,-23152.14,-29996.864999999998,-24980.895,-30813.93,-16565.895,-9906.119999999999
-24225.434999999998,-42580.305,-23143.454999999998,-29869.695,-24929.73,-30740.309999999998,-16537.68,-10045.215
-24356.52,-42681.33,-23238.765,-29939.129999999997,-24909.614999999998,-30690.449999999997,-16547.22,-10143.315
-24451.739999999998,-42429.42,-23219.055,-30090.69,-24963.975,-30727.844999999998,-16606.89,-10239.84
-24443.504999999997,-42421.049999999996,-23255.55,-30139.379999999997,-25017.254999999997,-30798.809999999998,-16685.415,-10289.88
-24317.64,-42407.28,-23291.954999999998,-30166.199999999997,-25075.98,-30901.545,-16767.765,-10244.16
-24121.079999999998,-42377.58,-23490.585,-30236.985,-25157.879999999997,-31019.265,-16843.545,-10147.23
-24066.945,-42236.64,-23457.105,-30399.48,-25368.614999999998,-31225.094999999998,-16922.565,-10114.92
-24125.85,-42339.104999999996,-23343.524999999998,-30613.5,-25597.98,-31395.824999999997,-16966.98,-10097.19
-24411.915,-42752.385,-23512.59,-30663.675,-25584.254999999997,-31305.42,-16940.25,-10189.08
-24644.114999999998,-42933.195,-23871.195,-30756.149999999998,-25504.605,-31154.445,-16909.2,-10375.785
-24718.41,-43062.39,-24020.73,-30691.485,-25495.739999999998,-31134.6,-16971.704999999998,-10558.395
-24610.32,-43124.085,-24023.655,-30578.445,-25603.469999999998,-31293.675,-17173.575,-10653.119999999999
-24572.52,-43018.695,-23913.405,-30601.8,-25754.715,-31498.469999999998,-17371.395,-10689.48
-24452.64,-42713.235,-23817.69,-30780.585,-25952.85,-31712.67,-17542.62,-10673.414999999999
-24459.57,-42571.845,-23711.94,-31015.62,-26193.645,-31910.535,-17629.065,-10716.255
-24560.504999999997,-42811.47,-23783.219999999998,-31228.695,-26352.675,-31991.175,-17682.03,-10805.31
-24847.065,-43420.14,-23976.54,-31372.11,-26387.594999999998,-31964.94,-17733.69,-10951.154999999999
-25147.395,-43526.205,-24227.37,-31455.045,-26451.405,-31999.14,-17823.239999999998,-11150.505
-25450.605,-43598.43,-24544.8,-31553.145,-26515.35,-32052.195,-17919.405,-11359.529999999999
-25632.405,-43884.18,-24763.95,-31598.954999999998,-26603.64,-32169.6,-18066.375,-11527.56
-25752.914999999997,-44012.43,-24912.36,-31624.829999999998,-26713.98,-32350.905,-18274.95,-11712.465
-25842.015,-44030.655,-24835.68,-31693.094999999998,-26823.329999999998,-32532.614999999998,-18508.545,-11923.47
-25845.344999999998,-43839.405,-24750.36,-31753.53,-26936.684999999998,-32710.545,-18660.239999999998,-12016.755
-25786.844999999998,-43781.354999999996,-24931.89,-31910.085,-27038.07,-32811.57,-18679.545,-12010.005
-25839.539999999997,-43859.295,-25121.07,-32005.844999999998,-27143.82,-32955.75,-18780.57,-12135.42
-25978.815,-43970.04,-25127.055,-32019.39,-27154.26,-33039.27,-18900.945,-12279.779999999999
-26103.69,-44111.34,-25163.415,-32073.48,-27191.34,-33169.229999999996,-19001.655,-12336.84
-26359.695,-44305.74,-25231.004999999997,-32130.0,-27237.69,-33230.159999999996,-19038.555,-12416.58
-26561.969999999998,-44527.005,-25280.64,-32216.355,-27307.934999999998,-33267.33,-19065.825,-12509.91
-26559.18,-44682.435,-25298.594999999998,-32280.21,-27409.77,-33366.104999999996,-19170.54,-12539.07
-26429.76,-44708.265,-25359.21,-32302.17,-27448.875,-33414.615,-19254.465,-12522.51
-26356.004999999997,-44603.909999999996,-25545.6,-32390.19,-27489.42,-33454.305,-19231.965,-12459.105
-26436.645,-44588.924999999996,-25646.895,-32544.585,-27578.565,-33520.59,-19195.605,-12451.275
-26590.68,-44611.38,-25509.015,-32540.085,-27549.765,-33443.01,-19176.84,-12571.56
-26616.149999999998,-44448.435,-25319.295,-32358.375,-27465.075,-33348.645,-19171.98,-12614.13
-26458.829999999998,-44286.93,-25292.61,-32262.164999999997,-27397.62,-33328.395,-19247.085,-12590.775
-26295.975,-44335.755,-25339.14,-32288.265,-27514.17,-33504.165,-19397.969999999998,-12555.765
-26327.789999999997,-44427.104999999996,-25436.25,-32327.01,-27682.155,-33671.025,-19501.965,-12581.414999999999
-26467.785,-44526.915,-25689.69,-32453.64,-27784.98,-33719.805,-19475.82,-12556.71
-26638.92,-44720.369999999995,-25829.504999999997,-32397.57,-27735.93,-33672.24,-19500.39,-12673.89
-26697.285,-44731.665,-25803.0,-32354.1,-27716.265,-33640.155,-19537.829999999998,-12733.199999999999
-26698.454999999998,-44555.04,-25688.204999999998,-32411.699999999997,-27808.559999999998,-33669.045,-19559.43,-12741.525
-26710.605,-44611.155,-25689.375,-32519.07,-27947.295,-33770.34,-19595.745,-12734.595
-26764.2,-44839.08,-25733.295,-32578.649999999998,-28028.43,-33827.4,-19670.715,-12777.705
-26732.07,-44837.64,-25863.39,-32717.925,-28111.545,-33893.01,-19723.364999999998,-12785.67
-26748.0,-44707.32,-25979.94,-32797.08,-28171.98,-33988.185,-19816.92,-12856.545
-26786.52,-44771.445,-26132.715,-32662.305,-28111.77,-34002.405,-19937.07,-12887.505
-26801.235,-44524.35,-25852.41,-32484.824999999997,-28008.495,-33957.63,-20062.305,-12947.894999999999
-26739.09,-44416.799999999996,-25776.225,-32486.94,-27940.364999999998,-33888.24,-20079.495,-12932.775
-27067.5,-44716.049999999996,-26032.59,-32645.789999999997,-27951.795,-33808.545,-20017.665,-13070.564999999999
-27360.765,-44968.59,-26132.039999999997,-32753.204999999998,-28088.594999999998,-33821.955,-20021.355,-13197.24
-27440.684999999998,-45135.09,-25950.015,-32541.885,-28026.0,-33744.869999999995,-20123.055,-13288.769999999999
-27154.844999999998,-44987.67,-25727.76,-32398.695,-27950.265,-33748.92,-20298.195,-13224.51
-26777.114999999998,-44612.595,-25744.545,-32537.16,-28070.73,-33938.955,-20395.17,-12968.91
-26670.015,-44595.9,-26067.239999999998,-32799.69,-28230.03,-34098.795,-20366.73,-12705.84
-26965.485,-44803.215,-26231.579999999998,-32686.875,-28096.92,-33979.59,-20352.645,-12780.63
-27029.969999999998,-44644.545,-26002.35,-32533.605,-28017.495,-33931.799999999996,-20470.364999999998,-13015.845
-26819.235,-44410.59,-25900.605,-32484.914999999997,-27984.015,-33909.435,-20568.69,-13118.939999999999
-26531.055,-44255.115,-26117.01,-32656.23,-28190.43,-34133.174999999996,-20592.63,-12956.58
-26558.91,-44444.835,-26323.92,-32821.2,-28359.899999999998,-34287.345,-20582.055,-12822.39
-26504.235,-44491.905,-26189.145,-32807.205,-28353.42,-34300.395,-20584.35,-12682.89
-26502.704999999998,-44366.085,-26052.75,-32684.265,-28269.0,-34235.775,-20515.274999999998,-12540.33
-26634.465,-44354.7,-26026.695,-32597.324999999997,-28161.27,-34059.51,-20333.34,-12558.555
-26702.82,-44402.67,-26008.02,-32573.52,-28088.414999999997,-33856.695,-20186.91,-12610.395
-26772.614999999998,-44553.689999999995,-25910.235,-32485.905,-27979.469999999998,-33702.705,-20097.945,-12531.689999999999
-26653.41,-44590.814999999995,-25916.67,-32406.434999999998,-27832.364999999998,-33578.82,-20006.864999999998,-12290.535
-26396.774999999998,-44393.58,-25898.579999999998,-32209.605,-27620.28,-33410.924999999996,-19907.145,-12054.824999999999
-25929.989999999998,-43852.005,-25696.17,-32075.82,-27506.745,-33345.99,-19871.82,-11862.63
-25710.434999999998,-43363.259999999995,-25294.364999999998,-31872.824999999997,-27370.17,-33218.865,-19786.77,-11734.965
-25753.094999999998,-43190.145,-24990.39,-31593.195,-27153.945,-33008.445,-19620.54,-11604.51
-25729.739999999998,-43114.409999999996,-24770.79,-31367.07,-26968.59,-32798.115,-19426.545,-11504.16
-25448.129999999997,-42955.064999999995,-24550.29,-31190.085,-26803.934999999998,-32646.329999999998,-19267.605,-11294.46
-25128.765,-42862.5,-24424.29,-31033.62,-26627.76,-32465.43,-19120.454999999998,-11028.914999999999
-25025.805,-42880.229999999996,-24518.52,-30979.89,-26554.995,-32312.879999999997,-18927.945,-10816.965
-25145.28,-42948.99,-24546.78,-30977.414999999997,-26538.84,-32211.225,-18738.0,-10735.244999999999
-25437.825,-42985.845,-24343.92,-30665.34,-26152.92,-31763.295,-18525.149999999998,-10901.654999999999
-25335.36,-42651.36,-23854.05,-30137.399999999998,-25541.64,-31154.625,-18401.985,-11146.59
-24766.92,-42205.77,-23647.41,-29963.699999999997,-25390.395,-31073.85,-18397.079999999998,-10875.824999999999
-24016.094999999998,-41811.119999999995,-23622.75,-30108.195,-25607.204999999998,-31384.98,-18366.165,-10110.555
-23668.29,-41570.235,-23600.475,-30296.565,-25894.44,-31739.129999999997,-18213.93,-9528.84
-23743.98,-41592.825,-23532.57,-30231.989999999998,-25921.215,-31739.085,-17980.739999999998,-9376.515
-23929.829999999998,-41784.479999999996,-23460.84,-30182.445,-25824.375,-31528.574999999997,-17803.844999999998,-9475.695
-23950.215,-41822.82,-23280.614999999998,-30017.565,-25576.695,-31246.469999999998,-17795.61,-9655.47
-23866.245,-41749.155,-23220.36,-29822.309999999998,-25334.64,-31009.5,-17731.17,-9644.715
-23883.12,-41677.965,-23297.85,-29764.44,-25207.965,-30875.94,-17622.225,-9587.565
-24017.489999999998,-41865.615,-23355.945,-29727.629999999997,-25161.344999999998,-30844.53,-17575.739999999998,-9629.865
-24006.059999999998,-41714.369999999995,-23182.605,-29687.355,-25101.989999999998,-30818.835,-17537.67,-9687.645
-23711.535,-41430.104999999996,-22974.434999999998,-29674.754999999997,-25231.77,-30957.614999999998,-17515.215,-9517.904999999999
-23439.465,-41311.08,-22944.239999999998,-29640.78,-25218.719999999998,-30997.8,-17479.62,-9266.355
-23265.675,-41244.795,-23064.84,-29754.135,-25239.375,-31041.18,-17395.965,-9021.375
-23266.079999999998,-41231.205,-23331.69,-29711.789999999997,-25149.645,-30978.449999999997,-17277.39,-8926.289999999999
-23199.21,-40973.13,-23346.36,-29761.245,-25187.715,-31018.949999999997,-17258.489999999998,-8953.289999999999
-23371.695,-40942.935,-22989.105,-29734.739999999998,-25195.364999999998,-30976.649999999998,-17275.364999999998,-9154.89
-23826.329999999998,-41169.915,-22780.53,-29649.78,-25155.18,-30833.73,-17255.655,-9445.815
-24061.274999999998,-41404.59,-22773.87,-29565.989999999998,-25069.14,-30745.17,-17355.69,-9607.994999999999
-23875.739999999998,-41475.869999999995,-23152.68,-29755.8,-25141.545,-30851.864999999998,-17461.755,-9539.414999999999
-23453.684999999998,-41311.619999999995,-23471.145,-30058.11,-25463.745,-31222.574999999997,-17578.62,-9274.275
-23400.945,-41433.795,-23450.489999999998,-30130.245,-25611.254999999997,-31423.14,-17651.204999999998,-9190.664999999999
-23586.254999999997,-41696.82,-23531.309999999998,-30191.309999999998,-25658.594999999998,-31458.195,-17695.079999999998,-9308.565
-23930.504999999997,-41751.405,-23697.405,-30355.425,-25747.425,-31467.329999999998,-17744.579999999998,-9568.395
-24281.325,-41950.665,-23793.795,-30475.574999999997,-25828.065,-31485.735,-17775.54,-9797.039999999999
-24500.52,-42211.125,-23857.065,-30480.03,-25874.01,-31527.405,-17864.325,-10038.06
-24486.975,-42277.68,-23839.829999999998,-30399.164999999997,-25798.184999999998,-31506.254999999997,-18005.355,-10211.085
-24316.515,-42167.52,-23840.73,-30353.76,-25758.315,-31519.17,-18091.305,-10217.295
-24209.82,-41782.049999999996,-23791.59,-30337.469999999998,-25835.309999999998,-31675.905,-18154.035,-10100.97
-24288.3,-41770.034999999996,-23755.14,-30432.059999999998,-25960.32,-31800.555,-18133.245,-10029.465
-24451.245,-41938.965,-23813.64,-30529.395,-26063.504999999997,-31832.954999999998,-18036.719999999998,-9984.285
-24431.76,-41934.06,-23784.524999999998,-30547.574999999997,-26086.905,-31807.215,-18044.55,-10019.565
-24330.6,-41816.744999999995,-23750.28,-30532.815,-26060.265,-31784.85,-18040.905,-10009.529999999999
-24300.225,-41896.215,-23878.98,-30573.809999999998,-26038.395,-31808.789999999997,-18010.575,-9975.33
-24399.045,-42000.84,-23923.125,-30612.195,-25999.515,-31729.41,-17973.495,-10061.505
-24593.445,-42096.24,-23863.995,-30609.045,-26057.745,-31674.51,-17931.239999999998,-10162.98
-24915.149999999998,-42350.805,-23801.219999999998,-30638.43,-26083.8,-31622.625,-17884.305,-10266.39
-25061.67,-42407.865,-23875.155,-30602.789999999997,-25956.315,-31486.545,-17888.13,-10472.58
-24810.975,-42287.805,-24102.09,-30661.155,-25824.285,-31458.645,-17996.309999999998,-10462.275
-24348.78,-42181.335,-24231.329999999998,-30667.635,-25859.07,-31657.184999999998,-18114.524999999998,-10174.859999999999
-24102.27,-41981.354999999996,-24233.76,-30757.004999999997,-26168.129999999997,-32047.065,-18103.094999999998,-9854.505
-24312.239999999998,-41905.979999999996,-23928.975,-30714.524999999998,-26332.379999999997,-32165.504999999997,-18040.14,-9880.154999999999
-24894.989999999998,-42144.479999999996,-23665.004999999997,-30625.739999999998,-26258.895,-31895.46,-17938.844999999998,-10307.835
-25123.32,-42271.11,-23627.114999999998,-30554.73,-26113.995,-31701.285,-17991.36,-10668.465
-24916.635,-42535.395,-24033.239999999998,-30637.844999999998,-26119.035,-31820.985,-18137.024999999998,-10489.32
-24511.77,-42543.854999999996,-24616.079999999998,-30999.329999999998,-26419.094999999998,-32215.815,-18255.69,-10066.994999999999
-24781.23,-42451.65,-24554.295,-31287.51,-26656.155,-32340.645,-18284.175,-10169.55
-25631.594999999998,-42589.665,-24237.27,-31148.46,-26547.344999999998,-32084.82,-18347.13,-10915.515
-25986.015,-43077.78,-24318.989999999998,-30991.184999999998,-26372.295,-31959.539999999997,-18532.575,-11291.039999999999
-25846.335,-43271.909999999996,-24749.1,-31108.5,-26441.37,-32232.195,-18857.024999999998,-11204.64
-25164.899999999998,-42641.46,-24937.02,-31539.465,-26968.635,-32896.89,-19122.12,-10831.68
-24775.785,-42500.205,-24945.614999999998,-32007.69,-27578.25,-33516.27,-19262.16,-10682.01
-25152.885,-43142.895,-25376.535,-32284.305,-27797.715,-33655.725,-19345.274999999998,-10951.38
-25831.934999999998,-43509.195,-25578.945,-32416.335,-27883.079999999998,-33678.225,-19522.305,-11400.21
-26225.145,-43737.345,-25708.274999999998,-32545.215,-28063.71,-33775.02,-19686.645,-11687.445
-26296.425,-43845.93,-25768.664999999997,-32664.015,-28159.829999999998,-33818.4,-19802.43,-11801.699999999999
-26194.905,-43888.77,-25888.59,-32753.969999999998,-28214.145,-33934.59,-19895.399999999998,-11795.535
-26088.975,-43852.994999999995,-26011.26,-32833.305,-28305.495,-34075.755,-19933.695,-11723.265
-26204.85,-43919.595,-26067.6,-32958.585,-28458.225,-34157.025,-20014.155,-11830.455
-26561.655,-44056.979999999996,-26008.379999999997,-32912.415,-28399.094999999998,-34056.45,-20119.77,-12130.02
-26821.71,-44150.085,-26038.44,-32837.58,-28221.12,-33910.92,-20146.815,-12359.205
-26926.92,-44223.255,-25984.754999999997,-32680.395,-28069.605,-33775.83,-20111.355,-12499.289999999999
-26816.625,-44115.525,-25993.44,-32762.969999999998,-28133.1,-33818.354999999996,-20052.719999999998,-12353.22
-26557.289999999997,-44143.02,-26015.535,-32867.505,-28238.85,-33940.665,-19970.325,-11969.82
-26236.53,-44074.71,-25940.07,-32749.515,-28236.239999999998,-33969.104999999996,-19857.375,-11649.869999999999
-26154.989999999998,-43875.63,-25705.62,-32509.53,-28049.67,-33808.86,-19747.395,-11592.0
-26286.524999999998,-43781.49,-25494.21,-32300.28,-27811.62,-33543.854999999996,-19616.67,-11663.414999999999
-26402.355,-43844.67,-25565.715,-32251.905,-27641.385,-33273.854999999996,-19422.855,-11687.984999999999
-26333.73,-43592.58,-25430.805,-32148.495,-27482.445,-33069.24,-19293.885,-11685.824999999999
-26117.46,-43258.32,-25118.684999999998,-31788.09,-27188.19,-32820.525,-19179.719999999998,-11569.904999999999
-26026.155,-43171.38,-24810.12,-31500.539999999997,-26940.42,-32594.085,-18926.864999999998,-11413.98
-25777.844999999998,-43161.885,-24658.2,-31359.195,-26837.145,-32541.254999999997,-18670.14,-11144.835
