ch_0,ch_1,ch_2,ch_3,ch_4,ch_5,ch_6,ch_7
3251.43,-31.23,9925.83,-4601.474999999999,-121481.595,-19314.855,14897.385,-32681.114999999998
3250.7549999999997,-31.005,9928.305,-4594.724999999999,-121473.98999999999,-19309.95,14891.4,-32681.655
3247.515,-36.495,9921.06,-4593.105,-121464.405,-19263.735,14887.349999999999,-32679.809999999998
3247.515,-38.519999999999996,9919.845,-4574.205,-121427.86499999999,-19167.12,14885.82,-32674.545
3224.475,-40.68,9934.92,-4536.8099999999995,-121370.04,-19056.195,14878.439999999999,-32695.829999999998
3210.435,-45.36,9929.52,-4556.115,-121395.33,-19066.32,14875.875,-32707.53
3223.7549999999997,-32.94,9929.654999999999,-4583.16,-121434.525,-19108.079999999998,14889.33,-32690.925
3222.3599999999997,-29.88,9931.185,-4584.599999999999,-121441.275,-19125.36,14888.295,-32691.375
3213.0899999999997,-32.58,9930.06,-4587.255,-121455.315,-19157.219999999998,14888.295,-32697.719999999998
3207.105,-31.68,9938.835,-4577.715,-121440.105,-19150.155,14896.935,-32697.36
3211.6949999999997,-24.165,9945.135,-4576.995,-121435.78499999999,-19139.219999999998,14902.425,-32691.015
3214.2599999999998,-22.365,9938.025,-4605.795,-121480.42499999999,-19183.995,14899.455,-32686.289999999997
3212.91,-23.985,9922.5,-4645.53,-121540.31999999999,-19240.245,14899.095,-32684.355
3214.17,-16.515,9928.44,-4652.73,-121563.26999999999,-19266.12,14902.515,-32682.105
3203.37,-14.04,9936.81,-4647.33,-121561.155,-19272.87,14887.71,-32696.37
3206.3849999999998,-13.68,9937.17,-4645.755,-121555.305,-19278.989999999998,14893.244999999999,-32692.41
3219.93,-7.425,9942.164999999999,-4629.195,-121531.59,-19256.489999999998,14906.519999999999,-32674.949999999997
3208.0049999999997,-14.805,9944.505,-4603.86,-121475.745,-19189.62,14890.904999999999,-32687.73
3194.415,-14.625,9963.404999999999,-4565.385,-121412.97,-19102.005,14870.609999999999,-32707.395
3190.545,-5.895,9985.859999999999,-4537.575,-121386.19499999999,-19055.295,14862.105,-32712.48
3181.9049999999997,-12.645,9980.46,-4534.245,-121376.83499999999,-19049.85,14864.31,-32713.605
3176.5499999999997,-2.385,9987.75,-4541.804999999999,-121396.59,-19094.76,14864.355,-32715.539999999997
3169.4849999999997,-4.8149999999999995,9968.355,-4592.655,-121466.06999999999,-19179.045,14869.71,-32715.539999999997
3177.18,-2.9699999999999998,9961.515,-4608.179999999999,-121488.12,-19198.395,14883.255,-32699.655
3174.93,-7.739999999999999,9959.94,-4595.58,-121469.67,-19171.575,14889.06,-32696.235
3163.5,-12.645,9972.585,-4552.155,-121411.665,-19110.78,14885.505,-32704.065
3158.37,-4.455,9990.449999999999,-4526.505,-121376.745,-19067.04,14882.625,-32706.765
3141.3599999999997,-14.219999999999999,9974.654999999999,-4562.325,-121421.295,-19088.505,14870.25,-32721.524999999998
3144.96,-15.254999999999999,9960.119999999999,-4605.84,-121482.36,-19137.87,14882.445,-32711.265
3154.5,-6.569999999999999,9960.029999999999,-4624.92,-121529.565,-19185.84,14893.83,-32698.125
3158.775,4.859999999999999,9965.609999999999,-4633.92,-121552.65,-19231.605,14889.779999999999,-32694.57
3158.595,11.34,9960.3,-4665.825,-121593.33,-19285.695,14888.88,-32694.3
3165.255,12.645,9956.565,-4676.04,-121599.26999999999,-19287.045,14898.105,-32684.94
3176.8199999999997,18.45,9968.085,-4648.32,-121566.42,-19257.704999999998,14898.42,-32672.52
3172.41,17.145,9975.06,-4620.915,-121535.86499999999,-19252.844999999998,14891.085,-32677.335
3161.88,13.59,9967.32,-4631.445,-121537.75499999999,-19242.315,14876.369999999999,-32687.64
3160.035,29.205,9982.529999999999,-4629.554999999999,-121537.08,-19224.855,14862.96,-32693.985
3154.455,38.835,10001.07,-4606.74,-121518.18,-19208.25,14866.244999999999,-32698.664999999997
3138.66,21.96,9997.83,-4565.295,-121450.59,-19124.594999999998,14871.96,-32705.954999999998
3122.2349999999997,6.39,9999.585,-4516.245,-121370.265,-19018.934999999998,14862.644999999999,-32718.105
3101.355,2.745,10001.609999999999,-4509.99,-121343.4,-18963.945,14851.619999999999,-32735.204999999998
3095.145,8.82,10001.34,-4528.304999999999,-121367.565,-19001.52,14851.394999999999,-32738.265
3098.97,15.705,10002.645,-4543.5599999999995,-121397.805,-19042.829999999998,14856.029999999999,-32732.01
3106.125,21.779999999999998,10001.97,-4565.07,-121435.01999999999,-19094.535,14860.035,-32723.01
3113.055,23.535,9996.435,-4586.67,-121478.12999999999,-19166.355,14872.904999999999,-32712.254999999997
3112.47,13.5,9970.425,-4637.97,-121547.295,-19240.155,14890.635,-32704.875
3121.83,12.555,9946.08,-4704.929999999999,-121638.015,-19323.855,14904.585,-32691.105
3124.2149999999997,10.26,9935.73,-4728.42,-121669.965,-19357.515,14899.23,-32688.765
3123.495,13.094999999999999,9950.49,-4691.115,-121622.805,-19295.55,14891.22,-32690.52
3102.795,18.224999999999998,9982.89,-4621.815,-121529.47499999999,-19171.71,14864.31,-32718.059999999998
3093.12,20.88,9997.83,-4582.755,-121472.28,-19115.325,14856.93,-32726.655
3091.275,20.61,9998.46,-4579.92,-121469.715,-19118.835,14857.92,-32727.42
3095.91,27.27,9998.82,-4600.62,-121513.14,-19151.684999999998,14865.84,-32722.515
3101.895,31.5,9993.06,-4623.75,-121551.84,-19187.01,14877.855,-32711.805
3101.355,31.23,9983.52,-4654.349999999999,-121583.205,-19198.89,14873.76,-32711.535
3102.795,43.379999999999995,9999.449999999999,-4643.415,-121570.01999999999,-19177.605,14857.74,-32716.71
3102.705,50.894999999999996,10019.699999999999,-4600.9349999999995,-121518.405,-19127.52,14858.01,-32716.89
3079.2599999999998,30.735,10020.555,-4550.3099999999995,-121437.045,-19054.17,14855.355,-32733.629999999997
3058.6949999999997,16.695,10015.74,-4534.335,-121396.455,-19009.215,14850.494999999999,-32752.079999999998
3061.305,23.849999999999998,10017.404999999999,-4548.735,-121420.98,-19035.18,14853.33,-32750.1
3063.645,28.98,10020.51,-4558.05,-121445.19,-19062.18,14854.185,-32746.32
3061.395,30.419999999999998,10021.41,-4567.095,-121462.29,-19085.94,14853.869999999999,-32744.475
3055.5899999999997,22.77,10007.55,-4589.19,-121485.69,-19105.29,14862.599999999999,-32742.585
3045.5099999999998,13.77,9999.494999999999,-4600.44,-121495.68,-19108.98,14858.55,-32749.559999999998
3047.085,20.7,10007.55,-4598.37,-121497.39,-19110.195,14854.32,-32749.92
3055.68,33.03,10018.89,-4594.815,-121497.39,-19109.7,14857.92,-32742.225
3057.255,36.945,10022.535,-4596.525,-121500.81,-19114.02,14855.265,-32741.82
3047.22,31.814999999999998,10017.045,-4603.5,-121511.79,-19124.864999999998,14848.695,-32749.469999999998
3048.435,36.585,10021.005,-4604.58,-121519.305,-19131.704999999998,14854.859999999999,-32744.925
3047.13,34.83,10014.029999999999,-4625.73,-121550.12999999999,-19162.62,14859.0,-32742.045
3037.8599999999997,25.695,9999.225,-4658.535,-121592.11499999999,-19206.54,14859.81,-32747.399999999998
3038.58,27.855,9996.029999999999,-4674.0599999999995,-121613.31,-19224.495,14861.835,-32747.715
3049.1099999999997,41.04,10007.055,-4671.54,-121617.98999999999,-19229.489999999998,14862.465,-32740.02
3051.63,44.055,10008.494999999999,-4672.304999999999,-121621.59,-19233.405,14857.199999999999,-32738.175
3054.7799999999997,46.754999999999995,10006.56,-4683.51,-121637.47499999999,-19242.989999999998,14876.595,-32727.555
3045.42,41.625,10004.625,-4681.304999999999,-121631.22,-19234.125,14871.734999999999,-32736.239999999998
3041.505,48.105,10028.07,-4633.965,-121564.08,-19166.67,14854.59,-32749.379999999997
3029.9849999999997,48.735,10043.145,-4603.139999999999,-121517.73,-19118.565,14834.699999999999,-32767.02
3030.48,57.644999999999996,10060.109999999999,-4579.38,-121491.98999999999,-19091.61,14824.439999999999,-32772.51
3036.015,69.16499999999999,10081.17,-4546.98,-121467.375,-19072.26,14813.73,-32775.075
3034.89,73.61999999999999,10086.21,-4552.74,-121486.455,-19097.864999999998,14814.855,-32777.865
3036.96,73.485,10070.145,-4602.0599999999995,-121549.905,-19164.329999999998,14815.08,-32773.905
3042.81,75.285,10064.52,-4621.139999999999,-121577.12999999999,-19194.66,14819.085,-32766.39
3045.015,78.21,10071.135,-4607.865,-121561.11,-19181.07,14816.564999999999,-32765.985
3047.625,84.33,10073.43,-4608.54,-121555.215,-19171.35,14818.005,-32764.274999999998
3050.505,89.955,10064.475,-4655.745,-121621.95,-19236.149999999998,14823.855,-32757.975
3064.68,99.49499999999999,10059.255,-4692.51,-121680.98999999999,-19297.305,14840.414999999999,-32738.265
3044.745,74.52,10041.705,-4680.585,-121661.235,-19282.05,14835.285,-32748.885
3025.5299999999997,68.22,10072.305,-4588.245,-121542.56999999999,-19165.454999999998,14809.185,-32773.59
3003.075,58.589999999999996,10085.31,-4542.48,-121469.31,-19066.274999999998,14799.779999999999,-32794.29
2990.295,46.98,10071.585,-4556.429999999999,-121472.19,-19051.875,14812.875,-32792.085
2997.1349999999998,51.57,10063.484999999999,-4587.795,-121514.805,-19097.82,14817.465,-32782.095
3001.41,49.455,10042.335,-4639.815,-121577.17499999999,-19159.469999999998,14824.529999999999,-32772.69
3007.2149999999997,50.355,10035.855,-4666.995,-121611.555,-19200.87,14829.66,-32762.969999999998
3012.075,62.235,10053.315,-4650.84,-121595.67,-19194.57,14823.72,-32761.71
2997.855,51.885,10054.305,-4621.455,-121558.36499999999,-19177.469999999998,14820.255,-32769.854999999996
2991.87,50.805,10060.875,-4603.005,-121534.73999999999,-19155.059999999998,14812.47,-32774.715
2986.4249999999997,52.875,10056.869999999999,-4630.59,-121569.84,-19164.555,14804.055,-32782.32
2990.205,47.97,10036.035,-4675.724999999999,-121630.275,-19215.809999999998,14822.505,-32769.045
2997.0899999999997,54.9,10040.625,-4682.429999999999,-121660.56,-19236.149999999998,14829.885,-32759.28
2975.7149999999997,45.36,10046.07,-4658.264999999999,-121628.43,-19175.355,14813.46,-32783.085
2962.575,42.705,10057.365,-4623.3,-121577.12999999999,-19119.465,14809.994999999999,-32793.75
2952.855,47.295,10070.775,-4597.965,-121539.33,-19091.61,14791.23,-32807.07
2960.91,58.275,10070.91,-4613.22,-121555.26,-19110.329999999998,14794.244999999999,-32798.565
2970.045,65.745,10068.029999999999,-4634.325,-121583.205,-19142.594999999998,14796.81,-32790.375
2966.13,60.885,10062.18,-4639.679999999999,-121588.965,-19147.725,14795.91,-32793.75
2963.295,57.33,10060.83,-4628.025,-121574.97,-19128.87,14804.685,-32789.97
2966.7149999999997,62.864999999999995,10066.859999999999,-4618.8,-121575.33,-19121.309999999998,14806.26,-32786.505
2963.835,69.57,10075.455,-4614.12,-121573.98,-19120.68,14796.494999999999,-32793.345
2946.5099999999998,52.11,10057.185,-4631.804999999999,-121584.28499999999,-19140.93,14794.65,-32804.865
2941.335,45.54,10052.369999999999,-4627.889999999999,-121572.45,-19137.915,14799.734999999999,-32803.56
2938.14,45.405,10052.01,-4635.179999999999,-121580.37,-19141.065,14800.769999999999,-32803.29
2935.44,48.375,10058.76,-4631.04,-121578.39,-19132.38,14800.05,-32804.415
2928.7349999999997,48.464999999999996,10061.685,-4626.045,-121576.905,-19112.94,14794.244999999999,-32810.534999999996
2918.52,42.21,10056.6,-4624.92,-121567.635,-19089.09,14785.74,-32820.479999999996
2923.38,44.64,10051.065,-4641.255,-121586.04,-19106.235,14790.24,-32815.26
2937.33,58.995,10060.56,-4640.715,-121586.17499999999,-19100.61,14801.49,-32801.985
2937.285,57.87,10054.755,-4653.764999999999,-121599.45,-19117.665,14807.115,-32798.295
2925.495,52.515,10051.83,-4658.22,-121607.595,-19127.969999999998,14789.519999999999,-32811.93
2920.77,48.105,10049.535,-4651.065,-121600.39499999999,-19128.375,14786.82,-32815.08
2921.67,52.559999999999995,10050.705,-4652.054999999999,-121595.985,-19125.855,14794.289999999999,-32811.165
2927.25,59.355,10051.56,-4663.665,-121611.87,-19150.02,14798.025,-32805.315
2933.2799999999997,58.41,10043.279999999999,-4676.13,-121631.265,-19187.82,14803.38,-32796.045
2929.8599999999997,56.294999999999995,10040.085,-4677.389999999999,-121636.845,-19208.385,14808.599999999999,-32794.2
2921.895,59.805,10051.335,-4656.554999999999,-121618.75499999999,-19186.875,14796.63,-32805.405
2916.225,63.18,10061.234999999999,-4636.17,-121603.545,-19166.265,14791.769999999999,-32813.01
2917.4849999999997,67.67999999999999,10062.494999999999,-4644.135,-121618.305,-19164.239999999998,14796.855,-32810.85
2919.915,70.875,10058.85,-4665.375,-121636.03499999999,-19146.69,14790.195,-32811.03
2916.6749999999997,66.78,10055.654999999999,-4663.17,-121616.81999999999,-19097.73,14789.25,-32812.74
2906.595,59.04,10057.275,-4640.94,-121580.81999999999,-19069.065,14788.98,-32818.14
2893.68,52.695,10057.095,-4621.724999999999,-121559.94,-19063.844999999998,14786.279999999999,-32826.195
2890.98,56.025,10056.195,-4635.675,-121576.31999999999,-19085.85,14781.869999999999,-32830.2
2893.545,54.945,10039.994999999999,-4670.235,-121614.12,-19126.665,14787.18,-32825.025
2903.085,62.775,10038.285,-4683.375,-121632.12,-19148.445,14795.64,-32813.595
2896.02,57.915,10033.515,-4689.495,-121647.555,-19162.53,14789.115,-32819.805
2894.31,58.455,10043.055,-4669.29,-121633.92,-19155.329999999998,14784.57,-32821.965
2894.7599999999998,65.07,10057.545,-4641.929999999999,-121600.70999999999,-19122.255,14777.775,-32826.915
2882.025,58.095,10051.83,-4641.615,-121594.815,-19115.64,14776.199999999999,-32834.43
2882.6549999999997,63.585,10053.0,-4655.295,-121621.76999999999,-19139.04,14780.88,-32832.18
2897.2349999999997,80.145,10059.119999999999,-4674.69,-121655.97,-19177.92,14789.07,-32818.185
2901.1949999999997,84.24,10058.4,-4682.295,-121665.28499999999,-19193.13,14788.845,-32814.81
2879.91,65.07,10046.52,-4670.595,-121628.205,-19149.39,14777.055,-32832.18
2873.43,57.059999999999995,10043.82,-4646.655,-121575.465,-19084.184999999998,14771.474999999999,-32835.555
2866.365,60.21,10059.345,-4618.3949999999995,-121543.245,-19042.965,14763.869999999999,-32842.979999999996
2851.1099999999997,49.455,10049.49,-4637.429999999999,-121574.97,-19063.62,14766.255,-32851.034999999996
2858.805,53.504999999999995,10044.225,-4656.51,-121616.415,-19094.94,14782.095,-32838.615
2865.69,61.919999999999995,10043.91,-4666.23,-121628.87999999999,-19118.61,14787.72,-32832.225
2862.855,60.254999999999995,10037.25,-4681.98,-121659.075,-19156.23,14778.81,-32835.555
2849.67,50.129999999999995,10032.93,-4671.585,-121633.245,-19127.34,14769.269999999999,-32847.975
2837.115,50.085,10041.48,-4648.545,-121590.0,-19088.64,14755.41,-32863.14
