ch_0,ch_1,ch_2,ch_3,ch_4,ch_5,ch_6,ch_7
-5481.945,-15194.385,24792.344999999998,14369.894999999999,18381.735,-408.645,7131.33,842.175
-5478.929999999999,-15187.769999999999,24804.989999999998,14405.355,18405.719999999998,-391.185,7130.295,844.8299999999999
-5464.98,-15182.865,24824.925,14419.89,18422.954999999998,-371.43,7140.0599999999995,860.4
-5469.615,-15196.814999999999,24811.2,14409.135,18423.719999999998,-366.075,7143.255,859.545
-5461.785,-15181.56,24816.329999999998,14415.66,18423.135,-368.82,7143.974999999999,863.9549999999999
-5457.915,-15172.244999999999,24828.21,14423.984999999999,18420.434999999998,-372.24,7141.905,867.105
-5449.455,-15166.035,24838.335,14428.08,18429.434999999998,-361.125,7149.285,876.9599999999999
-5443.83,-15168.285,24840.27,14433.48,18437.579999999998,-350.055,7157.5199999999995,885.285
-5439.105,-15163.965,24848.594999999998,14440.365,18445.905,-340.065,7163.054999999999,892.35
-5445.675,-15164.189999999999,24855.795,14441.76,18446.985,-339.75,7149.509999999999,883.8
-5433.389999999999,-15138.63,24882.66,14457.779999999999,18459.225,-329.895,7141.094999999999,890.73
-5428.53,-15137.414999999999,24884.01,14460.119999999999,18465.344999999998,-320.49,7147.665,897.93
-5420.07,-15145.92,24868.395,14439.015,18444.555,-333.53999999999996,7172.82,912.4649999999999
-5425.785,-15171.84,24847.785,14437.529999999999,18440.91,-332.055,7191.134999999999,917.28
-5432.67,-15175.17,24849.629999999997,14450.984999999999,18446.219999999998,-327.10499999999996,7187.67,912.555
-5418.45,-15146.505,24871.77,14468.805,18455.985,-322.78499999999997,7192.215,920.88
-5421.33,-15146.595,24875.594999999998,14476.725,18466.425,-313.02,7193.745,919.62
-5408.865,-15132.644999999999,24890.399999999998,14489.955,18478.53,-299.96999999999997,7195.32,932.4449999999999
-5397.3,-15119.865,24893.91,14486.085,18475.739999999998,-303.525,7193.115,940.545
-5403.24,-15136.064999999999,24879.375,14461.199999999999,18459.405,-314.28,7185.735,937.935
-5401.62,-15131.16,24885.135,14470.064999999999,18461.835,-313.60499999999996,7182.495,937.98
-5386.545,-15105.555,24904.665,14480.505,18464.85,-312.57,7183.8,947.295
-5374.755,-15107.58,24906.555,14485.545,18481.274999999998,-290.115,7205.085,966.285
-5391.045,-15134.49,24886.71,14478.66,18476.73,-291.015,7206.255,957.735
-5391.945,-15123.599999999999,24899.535,14486.535,18475.92,-293.84999999999997,7199.82,953.505
-5390.46,-15119.775,24904.754999999997,14490.404999999999,18475.155,-294.84,7198.785,954.765
-5383.215,-15106.41,24916.41,14488.064999999999,18469.8,-301.545,7191.179999999999,958.365
-5373.855,-15094.215,24926.129999999997,14482.8,18465.57,-306.405,7187.985,964.17
-5371.92,-15103.755,24918.66,14478.3,18469.305,-297.18,7198.0199999999995,972.3149999999999
-5373.045,-15122.474999999999,24910.155,14498.775,18500.85,-260.09999999999997,7216.83,982.395
-5381.6849999999995,-15139.035,24889.77,14500.89,18505.62,-250.92,7227.9,980.775
-5370.75,-15123.105,24901.11,14504.894999999999,18499.635,-257.13,7239.0599999999995,990.18
-5350.905,-15101.414999999999,24925.454999999998,14525.369999999999,18515.565,-240.255,7250.985,1009.3499999999999
-5348.385,-15094.755,24930.945,14532.119999999999,18518.085,-239.57999999999998,7242.884999999999,1008.18
-5338.035,-15070.724999999999,24952.545,14549.894999999999,18523.125,-242.14499999999998,7239.96,1012.185
-5331.24,-15065.414999999999,24950.34,14541.885,18516.555,-244.07999999999998,7244.37,1021.77
-5336.639999999999,-15065.775,24946.605,14537.43,18515.34,-243.89999999999998,7237.3949999999995,1016.055
-5326.92,-15056.144999999999,24959.745,14547.824999999999,18528.3,-230.535,7238.61,1024.56
-5340.69,-15079.814999999999,24943.32,14535.225,18524.969999999998,-228.42,7249.1849999999995,998.64
-5338.889999999999,-15075.9,24944.895,14542.785,18533.16,-218.565,7262.865,994.23
-5317.155,-15052.32,24973.605,14560.335,18543.015,-212.98499999999999,7257.375,1041.975
-5298.795,-15054.57,24977.52,14565.644999999999,18548.28,-205.73999999999998,7266.33,1085.175
-5305.724999999999,-15061.05,24974.64,14566.545,18552.105,-200.88,7268.804999999999,1065.96
-5321.88,-15080.085,24954.21,14551.785,18545.805,-204.165,7262.91,1043.37
-5324.849999999999,-15073.92,24961.635,14561.82,18550.53,-197.23499999999999,7271.46,1020.06
-5322.195,-15061.904999999999,24974.46,14560.785,18537.704999999998,-211.85999999999999,7264.3949999999995,1027.8899999999999
-5296.995,-15047.82,24974.01,14559.029999999999,18536.76,-213.57,7262.955,1085.3999999999999
-5289.795,-15048.404999999999,24966.945,14564.925,18540.809999999998,-211.45499999999998,7263.224999999999,1091.1599999999999
-5297.445,-15046.605,24960.239999999998,14569.695,18537.12,-214.155,7270.0199999999995,1065.51
-5308.335,-15043.185,24976.125,14573.025,18546.21,-202.995,7267.23,1032.93
-5300.865,-15042.195,24983.82,14572.305,18549.855,-195.70499999999998,7277.535,1054.0349999999999
-5283.54,-15054.255,24972.48,14566.545,18551.385,-187.245,7297.695,1113.2549999999999
-5272.2,-15049.574999999999,24961.725,14561.64,18551.34,-182.97,7302.78,1121.5349999999999
-5287.05,-15051.779999999999,24964.155,14563.71,18554.04,-184.995,7289.099999999999,1091.835
-5287.275,-15040.755,24983.1,14581.935,18567.405,-176.76,7289.009999999999,1083.51
-5289.389999999999,-15038.55,24996.195,14596.199999999999,18574.425,-168.48,7294.094999999999,1061.5049999999999
-5275.62,-15022.98,25012.98,14611.994999999999,18582.434999999998,-159.975,7298.009999999999,1081.17
-5252.58,-15011.865,25012.215,14611.455,18584.235,-158.265,7296.57,1136.475
-5229.99,-14991.119999999999,25008.704999999998,14611.005,18595.305,-144.67499999999998,7308.9,1155.33
-5234.175,-14990.085,25010.325,14596.605,18578.295,-159.345,7310.474999999999,1137.465
-5234.175,-14995.26,25016.129999999997,14607.225,18586.665,-149.715,7319.295,1140.2549999999999
-5239.9349999999995,-15004.89,25015.14,14607.675,18591.03,-142.65,7322.445,1138.23
-5230.035,-14993.595,25030.44,14624.324999999999,18608.579999999998,-124.24499999999999,7331.625,1150.47
-5234.4,-14997.105,25047.629999999997,14639.31,18618.975,-116.595,7331.3099999999995,1146.33
-5229.36,-15009.885,25045.739999999998,14644.98,18620.684999999998,-116.00999999999999,7340.355,1151.325
-5224.95,-14999.49,24989.76,14639.85,18620.91,-112.58999999999999,7343.865,1134.855
-5231.745,-14990.445,25002.629999999997,14630.76,18610.875,-120.645,7331.94,1119.87
-5212.71,-14974.74,25033.184999999998,14641.605,18611.684999999998,-121.86,7331.625,1168.695
-5191.5599999999995,-14969.654999999999,25044.75,14654.564999999999,18621.045,-113.58,7345.889999999999,1209.4199999999998
-5204.07,-14976.81,25043.535,14653.574999999999,18619.155,-115.28999999999999,7342.38,1182.195
-5196.105,-14964.255,25058.43,14665.859999999999,18629.774999999998,-104.535,7350.615,1187.595
-5200.83,-14972.265,25036.02,14657.67,18628.2,-101.07,7357.5,1185.7949999999998
-5189.22,-14961.06,25052.04,14666.715,18639.135,-89.05499999999999,7360.11,1195.7849999999999
-5196.96,-14973.705,25051.86,14659.695,18633.555,-93.825,7351.155,1188.27
-5194.304999999999,-14975.46,25048.215,14666.67,18635.805,-91.71,7353.54,1192.23
-5181.705,-14962.005,25044.975,14671.71,18645.795,-79.065,7365.509999999999,1204.74
-5179.365,-14960.699999999999,25051.905,14670.135,18648.135,-74.655,7368.255,1208.97
-5177.07,-14956.83,25063.829999999998,14680.394999999999,18651.96,-72.45,7371.945,1213.02
-5174.955,-14958.765,25067.024999999998,14685.84,18655.695,-67.365,7379.325,1218.0149999999999
-5169.15,-14952.914999999999,25069.094999999998,14683.23,18654.075,-66.645,7379.415,1222.9199999999998
-5172.075,-14955.885,25063.695,14679.269999999999,18650.835,-69.66,7374.554999999999,1219.32
-5160.735,-14945.085,25068.78,14689.08,18665.055,-55.169999999999995,7383.285,1231.2
-5148.99,-14930.865,25083.27,14701.814999999999,18676.035,-43.379999999999995,7396.0199999999995,1244.07
-5154.75,-14937.39,25087.86,14700.33,18667.26,-49.725,7391.924999999999,1240.7849999999999
-5149.44,-14931.945,25094.61,14705.73,18665.055,-54.675,7390.9349999999995,1242.405
-5150.565,-14935.23,25088.94,14706.63,18662.67,-58.544999999999995,7386.84,1240.155
-5149.215,-14935.904999999999,25082.864999999998,14707.35,18666.405,-50.669999999999995,7389.134999999999,1243.0349999999999
-5150.79,-14933.115,25078.41,14702.805,18667.98,-48.195,7384.5,1240.9199999999998
-5153.22,-14933.654999999999,25087.364999999998,14702.13,18672.165,-43.065,7381.304999999999,1240.425
-5146.83,-14925.779999999999,25099.605,14714.1,18683.774999999998,-31.005,7382.79,1248.345
-5153.58,-14943.015,25081.965,14695.74,18672.66,-37.35,7389.045,1247.355
-5149.485,-14943.15,25078.815,14699.385,18676.125,-34.065,7396.065,1254.4199999999998
-5127.12,-14914.529999999999,25104.69,14724.225,18688.59,-23.669999999999998,7405.335,1273.05
-5126.085,-14915.564999999999,25110.045,14727.869999999999,18694.62,-15.299999999999999,7403.759999999999,1274.175
-5130.2699999999995,-14926.814999999999,25108.11,14722.605,18695.43,-13.049999999999999,7401.195,1273.1399999999999
-5145.165,-14936.265,25102.035,14707.484999999999,18680.309999999998,-27.63,7387.514999999999,1258.11
-5125.365,-14913.135,25126.155,14732.055,18686.204999999998,-28.395,7396.38,1273.23
-5111.19,-14903.189999999999,25108.02,14728.5,18679.635,-34.515,7408.08,1288.98
-5119.47,-14908.545,25099.335,14726.43,18684.27,-27.09,7407.495,1275.075
-5135.355,-14922.09,25097.085,14726.88,18687.735,-20.34,7405.92,1240.56
-5132.565,-14918.13,25106.355,14730.57,18685.844999999998,-22.904999999999998,7396.155,1257.075
-5092.514999999999,-14890.949999999999,25128.585,14737.725,18694.485,-11.025,7410.96,1330.47
-5076.99,-14867.955,25145.28,14725.484999999999,18693.719999999998,-8.955,7419.0599999999995,1332.72
-5087.79,-14881.59,25138.71,14734.619999999999,18700.829999999998,-3.2399999999999998,7418.565,1317.33
-5098.005,-14895.72,25133.985,14759.775,18716.355,9.674999999999999,7420.094999999999,1311.2549999999999
-5097.465,-14886.269999999999,25144.379999999997,14765.085,18724.32,18.404999999999998,7418.835,1310.715
-5107.455,-14907.689999999999,25126.965,14738.355,18708.84,9.045,7416.764999999999,1306.665
-5105.97,-14919.75,25107.344999999998,14722.92,18708.165,14.264999999999999,7427.16,1313.145
-5102.054999999999,-14910.435,25108.379999999997,14730.48,18705.059999999998,10.754999999999999,7431.21,1315.71
-5095.755,-14904.99,25115.445,14745.869999999999,18715.184999999998,22.095,7435.3949999999995,1322.28
-5083.11,-14897.43,25124.805,14758.109999999999,18728.55,31.634999999999998,7442.639999999999,1329.705
-5077.755,-14876.01,25143.48,14764.185,18722.745,21.465,7445.34,1308.2849999999999
-5073.795,-14862.644999999999,25163.64,14775.164999999999,18726.795,25.334999999999997,7442.505,1313.235
-5075.099999999999,-14881.365,25155.809999999998,14767.56,18720.405,19.08,7433.009999999999,1350.405
-5072.535,-14887.035,25155.27,14776.515,18725.76,24.615,7437.554999999999,1358.73
-5071.23,-14879.789999999999,25155.809999999998,14790.33,18737.91,39.059999999999995,7443.179999999999,1348.02
-5054.264999999999,-14860.755,25147.395,14792.67,18748.755,51.345,7454.16,1362.195
-5051.745,-14862.689999999999,25141.77,14778.945,18743.625,49.05,7460.009999999999,1366.56
-5056.83,-14862.869999999999,25149.059999999998,14777.46,18736.92,40.365,7451.37,1358.235
-5067.585,-14867.414999999999,25153.065,14782.635,18739.395,43.11,7448.535,1330.56
-5081.715,-14879.699999999999,25146.18,14775.48,18737.235,43.019999999999996,7443.36,1312.83
-5054.264999999999,-14851.394999999999,25177.77,14797.845,18756.27,59.489999999999995,7441.605,1366.245
-5041.71,-14840.369999999999,25193.52,14801.894999999999,18754.38,56.07,7437.0599999999995,1391.58
-5057.325,-14862.42,25171.379999999997,14775.93,18733.77,41.535,7445.115,1366.7849999999999
-5056.335,-14890.005,25137.09,14765.805,18739.8,57.96,7474.23,1377.45
-5069.7,-14919.255,25099.695,14757.705,18737.684999999998,55.845,7477.5599999999995,1369.71
-5059.17,-14886.045,25133.355,14785.289999999999,18748.26,58.41,7461.855,1370.205
-5050.304999999999,-14865.435,25157.879999999997,14796.135,18744.885,50.22,7459.514999999999,1373.085
-5056.155,-14871.689999999999,25154.37,14789.43,18736.469999999998,44.684999999999995,7457.67,1369.485
-5058.945,-14872.41,25151.579999999998,14788.89,18739.485,49.004999999999995,7452.405,1367.235
-5053.365,-14862.869999999999,25157.43,14795.01,18744.12,52.379999999999995,7451.82,1370.8799999999999
-5049.0,-14862.644999999999,25147.125,14797.845,18751.32,60.12,7457.715,1375.02
-5044.815,-14860.215,25134.434999999998,14804.865,18763.559999999998,77.80499999999999,7477.92,1366.6499999999999
-5043.24,-14856.345,25135.379999999997,14808.33,18760.995,76.77,7477.155,1361.61
-5023.9349999999995,-14846.13,25139.385,14815.08,18763.155,76.32,7470.585,1410.3
-5013.09,-14846.039999999999,25133.085,14816.25,18762.795,76.41,7473.105,1435.4099999999999
-5021.054999999999,-14842.89,25128.945,14819.4,18767.88,81.99,7471.665,1413.495
-5034.105,-14848.785,25124.04,14822.595,18776.52,90.315,7462.08,1400.3999999999999
-5041.98,-14861.88,25105.635,14811.795,18777.51,92.97,7456.905,1394.235
-5034.24,-14858.82,25090.335,14799.33,18773.46,94.5,7471.125,1388.115
-5032.349999999999,-14847.93,25078.725,14794.605,18751.274999999998,70.74,7476.03,1375.02
-5017.59,-14838.48,25083.36,14815.664999999999,18761.805,79.155,7477.155,1415.205
-4991.58,-14832.765,25083.09,14830.154999999999,18782.055,101.61,7492.41,1467.405
-5011.514999999999,-14846.894999999999,25063.469999999998,14812.56,18767.655,89.72999999999999,7482.195,1434.0149999999999
-5018.355,-14849.055,25056.855,14815.529999999999,18770.76,93.375,7477.38,1424.1599999999999
-5017.59,-14847.029999999999,25050.735,14826.105,18777.51,99.72,7478.82,1425.2849999999999
-5003.6849999999995,-14831.865,25047.675,14839.47,18786.6,107.145,7482.78,1436.445
-5010.075,-14832.269999999999,25031.07,14832.945,18777.87,97.24499999999999,7469.37,1426.995
-5005.665,-14822.865,25026.93,14830.83,18773.19,92.74499999999999,7470.09,1429.11
-5006.115,-14829.255,25006.635,14818.545,18768.51,93.195,7476.884999999999,1432.0349999999999
