ch_0,ch_1,ch_2,ch_3,ch_4,ch_5,ch_6,ch_7
13225.904999999999,-1404.135,-735.5699999999999,-1240.74,17824.32,-8641.89,3136.5,17326.125
13176.765,-1481.6699999999998,-828.3149999999999,-1362.2849999999999,17665.155,-8744.805,3212.8199999999997,17344.62
13164.345,-1490.94,-830.9699999999999,-1358.82,17650.079999999998,-8718.074999999999,3190.185,17325.495
13188.824999999999,-1469.115,-817.0649999999999,-1344.69,17611.47,-8793.045,3209.355,17336.25
13186.664999999999,-1488.825,-851.805,-1393.47,17537.309999999998,-8772.255,3258.54,17340.885
13204.71,-1475.145,-851.67,-1420.02,17503.829999999998,-8800.695,3180.105,17351.145
13244.76,-1413.405,-803.655,-1438.695,17232.704999999998,-9092.654999999999,3200.085,17361.405
13256.189999999999,-1369.8899999999999,-736.0649999999999,-1371.06,17133.345,-9162.359999999999,3225.7799999999997,17347.41
13155.885,-1483.29,-799.515,-1281.96,17691.12,-8802.81,3120.705,17307.045
13085.055,-1560.87,-857.295,-1271.43,18062.684999999998,-8482.095,3114.0,17268.48
13139.595,-1494.1799999999998,-809.73,-1272.24,17963.73,-8477.19,3128.13,17279.325
13178.295,-1467.45,-798.93,-1292.85,17798.715,-8663.355,3181.41,17325.72
13192.244999999999,-1456.6499999999999,-788.67,-1283.445,17803.44,-8535.824999999999,3153.5099999999998,17331.57
13208.76,-1439.73,-781.74,-1308.96,17671.005,-8549.01,3152.43,17336.655
13259.564999999999,-1381.995,-742.905,-1322.37,17489.52,-8767.08,3220.6949999999997,17357.985
13300.83,-1331.9099999999999,-701.865,-1300.995,17478.765,-9024.255,3190.23,17384.13
13173.255,-1478.655,-816.885,-1320.705,17753.219999999998,-8862.21,3152.745,17331.434999999998
13128.885,-1527.21,-847.8449999999999,-1315.53,17836.649999999998,-8581.815,3134.025,17305.2
13133.609999999999,-1522.08,-846.99,-1324.0349999999999,17785.17,-8635.949999999999,3143.565,17322.075
13162.005,-1491.3899999999999,-830.0699999999999,-1333.08,17741.52,-8667.855,3154.455,17331.66
13179.24,-1472.6699999999998,-825.255,-1354.5449999999998,17664.03,-8714.835,3147.93,17333.91
13253.355,-1376.73,-742.3199999999999,-1325.52,17539.559999999998,-8719.74,3136.68,17346.78
13372.425,-1212.57,-585.9449999999999,-1241.5049999999999,17387.595,-8664.93,3065.9849999999997,17370.27
13358.115,-1236.96,-611.37,-1263.4199999999998,17276.985,-8862.84,3010.23,17398.485
13180.59,-1501.695,-849.915,-1367.01,17569.755,-9185.76,3138.525,17397.315
13032.72,-1651.995,-955.89,-1375.065,17918.46,-8788.545,3226.3199999999997,17319.915
13070.25,-1577.8799999999999,-877.9499999999999,-1314.135,17939.024999999998,-8462.789999999999,3173.58,17296.605
13134.15,-1513.98,-836.9549999999999,-1322.28,17784.765,-8612.775,3164.1749999999997,17333.46
13155.255,-1489.1399999999999,-824.265,-1334.1599999999999,17721.719999999998,-8679.24,3160.7999999999997,17345.024999999998
13180.859999999999,-1456.155,-801.765,-1336.5449999999998,17666.595,-8701.74,3158.685,17351.64
13194.135,-1439.82,-794.0699999999999,-1343.61,17605.079999999998,-8740.89,3170.25,17347.05
13188.105,-1456.47,-811.935,-1340.19,17679.69,-8695.664999999999,3173.265,17336.34
13207.23,-1438.6499999999999,-779.7149999999999,-1284.7949999999998,17778.105,-8562.465,3065.58,17360.864999999998
13200.39,-1439.73,-782.505,-1303.605,17669.61,-8750.52,3155.265,17376.21
13190.265,-1442.34,-792.27,-1336.185,17606.79,-8916.48,3261.015,17342.46
13188.24,-1437.84,-772.875,-1305.0449999999998,17700.255,-8768.295,3195.1349999999998,17329.77
13167.81,-1481.085,-806.4449999999999,-1320.03,17635.77,-8640.27,3088.935,17380.934999999998
13153.095,-1485.09,-820.35,-1341.45,17656.02,-8625.195,3131.955,17365.815
13185.314999999999,-1437.345,-778.995,-1324.44,17637.57,-8758.26,3143.835,17351.055
13200.074999999999,-1432.35,-769.9499999999999,-1314.0449999999998,17642.565,-8850.375,3084.705,17365.23
13146.345,-1505.2949999999998,-830.79,-1336.5449999999998,17677.395,-8781.975,3127.68,17365.005
13157.685,-1483.065,-824.49,-1354.815,17573.895,-8638.515,3187.665,17349.3
13206.824999999999,-1419.12,-790.6949999999999,-1389.33,17370.27,-8773.83,3299.9849999999997,17343.27
13242.779999999999,-1380.51,-764.685,-1410.615,17221.005,-9094.005,3203.685,17375.76
13218.705,-1413.45,-763.02,-1332.6299999999999,17538.21,-9102.96,3028.275,17396.19
13153.365,-1483.74,-781.74,-1231.74,17906.085,-8790.615,3056.58,17359.785
13123.439999999999,-1518.03,-810.4499999999999,-1239.615,17979.344999999998,-8439.615,3099.1949999999997,17339.309999999998
13142.97,-1497.0149999999999,-817.65,-1304.145,17796.735,-8510.49,3104.2799999999997,17345.79
13179.105,-1446.7949999999998,-784.845,-1316.79,17647.335,-8653.68,3123.63,17349.434999999998
13174.47,-1449.1799999999998,-808.1999999999999,-1378.8,17505.495,-8757.585,3168.045,17339.399999999998
13171.994999999999,-1456.6499999999999,-811.89,-1380.915,17471.97,-8844.705,3123.4049999999997,17355.87
13190.49,-1461.69,-803.79,-1332.675,17577.135,-8885.97,3116.88,17380.62
13218.255,-1395.315,-716.67,-1225.305,17751.555,-8761.32,3095.37,17353.17
13271.355,-1322.865,-668.0699999999999,-1256.1299999999999,17560.26,-8683.965,3065.13,17386.739999999998
13228.785,-1404.7649999999999,-763.38,-1347.615,17448.434999999998,-8714.97,3099.5099999999998,17405.325
13145.49,-1508.8049999999998,-837.765,-1330.155,17683.739999999998,-8818.38,3127.3199999999997,17379.495
13104.945,-1549.35,-865.0799999999999,-1327.455,17841.51,-8786.565,3124.935,17352.135
13096.17,-1552.725,-866.2049999999999,-1337.355,17779.545,-8645.805,3113.91,17337.285
13137.074999999999,-1505.79,-835.56,-1341.0449999999998,17681.985,-8712.27,3108.24,17350.245
13161.779999999999,-1474.965,-808.3349999999999,-1319.22,17698.094999999998,-8721.99,3104.8199999999997,17349.48
13178.43,-1461.78,-800.5949999999999,-1324.7549999999999,17646.48,-8718.975,3114.6749999999997,17366.085
13169.744999999999,-1474.56,-816.7049999999999,-1348.11,17597.475,-8780.58,3124.89,17375.13
13159.17,-1463.58,-793.4399999999999,-1309.365,17710.065,-8704.26,3109.545,17354.475
13202.91,-1407.96,-743.265,-1276.9199999999998,17680.454999999998,-8698.14,3097.845,17360.505
13237.875,-1369.26,-714.015,-1288.53,17539.829999999998,-8762.895,3180.285,17364.329999999998
13218.525,-1392.3899999999999,-736.8299999999999,-1309.635,17581.545,-8833.86,3068.2349999999997,17371.934999999998
13140.269999999999,-1484.685,-811.395,-1311.93,17742.285,-8860.77,3050.415,17356.77
13131.99,-1500.2549999999999,-830.475,-1338.705,17635.905,-8786.205,3109.9049999999997,17352.405
13149.359999999999,-1488.4199999999998,-827.28,-1343.745,17647.29,-8688.06,3097.395,17356.635
13145.894999999999,-1501.74,-835.605,-1337.715,17688.329999999998,-8726.895,3098.205,17356.32
13154.085,-1490.8049999999998,-826.245,-1340.01,17669.52,-8725.904999999999,3094.29,17357.535
13177.71,-1455.345,-801.27,-1344.33,17588.88,-8737.335,3099.915,17369.595
13188.105,-1436.5349999999999,-783.225,-1332.72,17561.114999999998,-8723.97,3083.9849999999997,17369.145
13187.115,-1438.3799999999999,-783.9449999999999,-1343.52,17509.59,-8834.49,3078.225,17368.875
13165.785,-1465.02,-804.015,-1347.7949999999998,17601.885,-8879.039999999999,3104.2349999999997,17367.21
13153.68,-1468.395,-792.72,-1315.665,17665.425,-8760.42,3110.625,17356.23
13161.33,-1453.095,-766.17,-1284.615,17651.97,-8777.97,3113.91,17359.425
13165.289999999999,-1438.245,-754.38,-1274.355,17705.204999999998,-8667.765,3097.305,17343.855
13191.119999999999,-1411.155,-741.8249999999999,-1278.7649999999999,17682.075,-8628.21,3053.3399999999997,17348.355
13266.765,-1343.52,-696.6899999999999,-1279.44,17500.545,-8883.09,3092.58,17410.545
13205.654999999999,-1428.75,-758.16,-1290.6,17629.245,-8959.455,3126.915,17398.71
13112.505,-1536.2549999999999,-851.85,-1336.2749999999999,17809.515,-8782.38,3123.63,17345.745
13126.455,-1511.5049999999999,-835.74,-1335.33,17719.605,-8767.485,3141.495,17340.795
13159.755,-1477.215,-803.295,-1312.335,17685.27,-8660.52,3047.805,17362.53
13134.195,-1504.26,-829.26,-1343.43,17669.88,-8641.845,3092.7149999999997,17364.195
13152.06,-1476.495,-800.775,-1316.565,17665.739999999998,-8742.015,3094.47,17363.07
13170.375,-1455.03,-781.9649999999999,-1303.245,17654.715,-8757.945,3073.095,17362.845
13193.505,-1431.27,-764.235,-1297.665,17647.605,-8723.205,3085.47,17378.235
13169.925,-1458.09,-790.9649999999999,-1315.935,17682.03,-8753.31,3101.13,17366.309999999998
13165.515,-1462.365,-794.115,-1322.325,17665.11,-8766.585,3091.8599999999997,17362.98
13181.67,-1448.0549999999998,-783.0899999999999,-1319.445,17635.545,-8742.015,3092.04,17374.05
13209.029999999999,-1413.09,-758.8349999999999,-1326.24,17546.22,-8791.02,3100.8599999999997,17390.16
13211.01,-1413.675,-754.29,-1309.095,17577.72,-8821.755,3099.915,17392.005
13167.359999999999,-1449.225,-763.9649999999999,-1264.59,17759.475,-8730.855,3068.19,17354.88
13168.035,-1438.335,-754.02,-1260.6299999999999,17769.195,-8669.43,3065.49,17346.195
13203.045,-1415.97,-750.4649999999999,-1288.665,17665.155,-8728.83,3095.19,17386.875
13178.34,-1454.76,-792.54,-1333.26,17604.63,-8781.525,3106.4849999999997,17392.725
13160.25,-1458.945,-788.13,-1319.1299999999999,17625.329999999998,-8846.414999999999,3086.2799999999997,17367.075
13149.269999999999,-1460.79,-779.7149999999999,-1289.61,17727.66,-8713.619999999999,3063.375,17347.995
13173.66,-1432.575,-761.175,-1288.62,17700.795,-8739.9,3060.585,17358.93
13186.935,-1424.79,-763.9649999999999,-1303.6499999999999,17655.975,-8774.414999999999,3067.74,17368.739999999998
13201.92,-1420.245,-766.125,-1315.1699999999998,17606.79,-8784.675,3078.765,17384.22
13211.324999999999,-1424.52,-776.79,-1342.98,17466.255,-8841.51,3092.67,17399.88
13228.109999999999,-1402.5149999999999,-765.855,-1378.98,17333.64,-8953.47,3093.5699999999997,17408.97
13251.33,-1360.08,-734.76,-1394.955,17293.184999999998,-9064.935,3072.7349999999997,17404.605
13212.314999999999,-1404.1799999999998,-759.735,-1365.48,17351.46,-9056.699999999999,3088.2599999999998,17376.93
13112.369999999999,-1498.05,-797.31,-1278.54,17786.16,-8834.805,3110.4,17312.13
13142.519999999999,-1452.915,-739.62,-1213.605,17960.175,-8543.115,3004.1549999999997,17322.57
13178.519999999999,-1442.745,-763.9649999999999,-1283.85,17702.235,-8765.324999999999,3019.41,17382.059999999998
13148.55,-1477.575,-791.415,-1289.97,17690.175,-8772.795,3055.9049999999997,17364.329999999998
13126.725,-1489.5449999999998,-789.8399999999999,-1266.885,17848.485,-8612.595,3019.455,17334.63
13152.105,-1461.375,-770.805,-1268.01,17806.14,-8633.654999999999,3031.245,17349.795
13180.05,-1435.0049999999999,-761.7149999999999,-1290.1499999999999,17693.82,-8716.994999999999,3046.6349999999998,17367.66
13178.88,-1437.84,-771.7049999999999,-1311.6599999999999,17611.649999999998,-8774.82,3044.0699999999997,17354.88
13211.234999999999,-1411.56,-759.78,-1333.1699999999998,17488.934999999998,-8884.98,3032.955,17381.88
13183.199999999999,-1439.595,-770.355,-1328.58,17564.535,-8841.869999999999,3020.805,17380.26
13121.82,-1497.465,-800.73,-1302.75,17786.969999999998,-8715.779999999999,3021.5699999999997,17346.735
13134.06,-1484.595,-791.145,-1292.04,17775.135,-8677.619999999999,3012.705,17346.87
13145.805,-1466.37,-779.355,-1298.8799999999999,17706.465,-8730.404999999999,3007.35,17349.885
13151.925,-1459.215,-777.285,-1305.7649999999999,17671.454999999998,-8742.645,3006.045,17356.725
13156.335,-1456.6499999999999,-783.99,-1331.19,17599.454999999998,-8767.485,2997.81,17355.645
13204.619999999999,-1402.11,-751.905,-1356.9299999999998,17438.579999999998,-8850.195,3004.6949999999997,17379.495
13258.35,-1336.86,-703.0799999999999,-1349.325,17367.48,-8991.27,3012.5699999999997,17405.55
13250.609999999999,-1338.6599999999999,-692.28,-1306.98,17471.43,-9111.195,2978.2349999999997,17390.7
13211.189999999999,-1389.375,-717.345,-1279.1699999999998,17567.19,-8928.494999999999,2970.855,17382.285
13160.699999999999,-1455.7949999999998,-769.8149999999999,-1312.155,17588.88,-8710.92,2994.48,17379.36
13106.88,-1519.155,-812.5649999999999,-1293.48,17762.535,-8685.72,2987.46,17355.149999999998
13113.99,-1503.585,-793.845,-1260.495,17893.844999999998,-8631.765,2955.015,17354.61
13146.93,-1464.615,-766.4399999999999,-1264.5,17812.665,-8642.88,2956.455,17372.745
13175.505,-1426.77,-739.89,-1268.6399999999999,17640.945,-8670.015,2946.24,17385.12
13186.8,-1410.3,-737.37,-1286.055,17620.695,-8774.775,2934.9449999999997,17386.155
13201.65,-1401.2549999999999,-747.135,-1317.06,17655.75,-8819.865,2933.91,17397.809999999998
13224.51,-1384.74,-737.91,-1327.905,17563.995,-8875.935,2935.305,17415.72
13219.38,-1404.0449999999998,-756.9449999999999,-1362.0149999999999,17435.34,-8846.279999999999,2926.62,17421.84
13237.425,-1373.8049999999998,-731.97,-1373.22,17262.54,-8971.38,2928.5099999999998,17434.71
13215.06,-1401.57,-749.115,-1376.5049999999999,17328.96,-9085.32,2902.455,17419.86
13198.769999999999,-1412.73,-757.62,-1373.715,17414.954999999998,-9034.065,2873.6549999999997,17404.065
13136.805,-1470.105,-776.0699999999999,-1299.735,17687.385,-8807.445,2851.9649999999997,17360.145
13109.984999999999,-1470.0149999999999,-736.6949999999999,-1211.445,17902.62,-8649.585,2809.305,17336.114999999998
13149.585,-1448.73,-732.24,-1220.6699999999998,17851.454999999998,-8722.71,2839.23,17388.27
13141.619999999999,-1480.725,-784.5749999999999,-1296.855,17769.465,-8689.68,2870.955,17404.155
13215.555,-1400.895,-749.6999999999999,-1371.4199999999998,17406.945,-8912.43,2892.555,17451.855
13234.05,-1379.2949999999998,-746.9549999999999,-1392.345,17279.82,-8969.445,2867.895,17451.495
13211.414999999999,-1399.095,-758.61,-1378.98,17298.585,-9086.76,2821.185,17424.945
13165.965,-1438.29,-762.975,-1327.185,17486.37,-9053.055,2762.91,17395.02
13141.98,-1455.9299999999998,-745.11,-1252.845,17645.309999999998,-8818.785,2723.1749999999997,17379.27
13119.255,-1473.615,-743.805,-1204.74,17899.92,-8649.225,2702.52,17364.555
13126.275,-1480.365,-765.045,-1237.0049999999999,17964.855,-8604.09,2695.995,17376.345
13162.5,-1437.705,-743.355,-1260.315,17807.13,-8580.375,2694.15,17389.71
13209.48,-1378.8,-708.345,-1294.245,17545.635,-8823.465,2721.285,17415.945
