ch_0,ch_1,ch_2,ch_3,ch_4,ch_5,ch_6,ch_7
-4330.71,-29608.92,-4914.2699999999995,-23510.879999999997,-31636.934999999998,-22167.585,-10613.34,12860.595
-4329.495,-29609.64,-4915.845,-23515.469999999998,-31639.004999999997,-22171.635,-10621.574999999999,12862.439999999999
-4331.88,-29613.239999999998,-4919.804999999999,-23521.995,-31650.614999999998,-22178.16,-10619.595,12859.92
-4326.21,-29607.164999999997,-4911.21,-23516.64,-31645.35,-22161.915,-10616.4,12866.76
-4328.415,-29609.684999999998,-4908.465,-23506.155,-31628.789999999997,-22141.215,-10618.695,12866.49
-4327.965,-29612.969999999998,-4910.264999999999,-23505.614999999998,-31630.454999999998,-22139.37,-10617.435,12868.109999999999
-4327.245,-29613.6,-4913.19,-23510.43,-31638.914999999997,-22136.085,-10614.195,12870.359999999999
-4329.45,-29616.39,-4916.385,-23512.184999999998,-31642.379999999997,-22131.36,-10615.5,12867.21
-4325.04,-29610.539999999997,-4909.139999999999,-23503.094999999998,-31634.64,-22122.09,-10620.0,12867.48
-4329.09,-29617.245,-4914.135,-23509.17,-31640.715,-22122.675,-10618.065,12868.92
-4332.69,-29621.385,-4916.429999999999,-23510.745,-31645.844999999998,-22122.45,-10617.93,12868.38
-4336.47,-29628.495,-4922.235,-23516.37,-31652.864999999998,-22124.655,-10619.324999999999,12867.39
-4340.474999999999,-29634.03,-4928.58,-23523.704999999998,-31657.995,-22127.715,-10618.38,12865.814999999999
-4344.795,-29636.19,-4931.01,-23529.69,-31661.594999999998,-22128.614999999998,-10619.46,12864.015
-4353.48,-29646.27,-4941.405,-23543.91,-31672.53,-22134.69,-10620.72,12856.005
-4348.71,-29637.629999999997,-4932.405,-23537.969999999998,-31667.265,-22125.239999999998,-10625.039999999999,12855.285
-4336.875,-29622.375,-4917.105,-23522.04,-31654.664999999997,-22109.489999999998,-10627.47,12862.305
-4350.014999999999,-29639.565,-4934.115,-23535.18,-31669.649999999998,-22122.045,-10628.279999999999,12854.609999999999
-4350.915,-29641.364999999998,-4935.87,-23532.885,-31670.774999999998,-22123.53,-10631.205,12853.664999999999
-4344.255,-29631.69,-4927.679999999999,-23522.94,-31666.094999999998,-22118.309999999998,-10635.074999999999,12858.39
-4349.79,-29636.55,-4934.295,-23528.024999999998,-31672.844999999998,-22118.805,-10637.01,12853.619999999999
-4343.49,-29627.055,-4926.69,-23518.934999999998,-31663.754999999997,-22103.684999999998,-10639.08,12859.47
-4342.23,-29626.155,-4926.195,-23520.239999999998,-31666.41,-22106.79,-10639.89,12862.529999999999
-4342.7699999999995,-29625.254999999997,-4924.53,-23518.17,-31664.43,-22100.175,-10642.904999999999,12861.72
-4340.43,-29621.835,-4921.605,-23509.305,-31657.68,-22091.309999999998,-10645.02,12861.225
-4341.465,-29622.375,-4924.3949999999995,-23505.93,-31657.5,-22082.265,-10642.14,12862.529999999999
-4347.09,-29636.774999999998,-4945.59,-23526.495,-31683.914999999997,-22099.364999999998,-10634.175,12865.41
-4354.65,-29645.414999999997,-4959.2699999999995,-23539.094999999998,-31698.765,-22108.14,-10636.199999999999,12860.505
-4356.855,-29641.995,-4957.514999999999,-23530.86,-31689.539999999997,-22097.835,-10640.385,12856.185
-4365.675,-29649.914999999997,-4967.775,-23537.024999999998,-31696.515,-22098.239999999998,-10640.609999999999,12847.185
-4366.485,-29649.645,-4969.665,-23538.105,-31697.91,-22095.09,-10643.4,12845.744999999999
-4365.315,-29647.754999999997,-4969.26,-23536.89,-31695.84,-22090.59,-10645.65,12847.41
-4364.639999999999,-29646.315,-4969.71,-23535.225,-31693.86,-22086.719999999998,-10650.555,12848.894999999999
-4355.505,-29637.09,-4961.295,-23524.829999999998,-31685.895,-22076.28,-10650.69,12855.33
-4362.03,-29648.16,-4972.23,-23536.215,-31694.805,-22083.165,-10651.994999999999,12853.484999999999
-4349.745,-29636.055,-4959.09,-23525.594999999998,-31683.914999999997,-22072.094999999998,-10657.529999999999,12862.35
-4344.795,-29629.395,-4950.54,-23518.305,-31675.14,-22065.03,-10649.07,12863.654999999999
-4355.37,-29640.42,-4960.485,-23524.649999999998,-31680.855,-22066.695,-10651.904999999999,12855.105
-4365.945,-29654.28,-4972.545,-23535.629999999997,-31693.41,-22074.57,-10650.195,12848.984999999999
-4364.6849999999995,-29646.989999999998,-4962.195,-23526.855,-31684.274999999998,-22065.03,-10659.285,12845.295
-4359.96,-29642.219999999998,-4957.92,-23524.155,-31681.62,-22058.01,-10655.1,12847.635
-4362.075,-29646.405,-4965.615,-23534.864999999998,-31695.704999999998,-22062.285,-10651.994999999999,12848.805
-4365.764999999999,-29649.69,-4969.485,-23538.51,-31700.565,-22061.385,-10653.615,12847.904999999999
-4366.305,-29650.68,-4968.045,-23540.67,-31700.789999999997,-22059.765,-10655.865,12847.68
-4360.68,-29641.32,-4957.38,-23535.719999999998,-31701.824999999997,-22054.545,-10658.565,12849.885
-4346.955,-29621.789999999997,-4938.12,-23520.645,-31694.985,-22041.945,-10661.94,12858.57
-4337.37,-29607.12,-4925.474999999999,-23508.809999999998,-31685.94,-22034.34,-10664.324999999999,12862.98
-4340.43,-29611.44,-4934.115,-23515.379999999997,-31686.84,-22033.62,-10667.744999999999,12861.18
-4351.59,-29624.895,-4948.875,-23523.3,-31675.364999999998,-22021.739999999998,-10677.105,12855.195
-4354.245,-29628.989999999998,-4952.79,-23529.195,-31675.14,-22020.165,-10661.715,12857.31
-4359.78,-29634.57,-4960.845,-23543.73,-31687.829999999998,-22027.454999999998,-10659.869999999999,12854.654999999999
-4356.0,-29630.385,-4957.5599999999995,-23543.504999999997,-31687.469999999998,-22023.899999999998,-10664.775,12858.885
-4368.0599999999995,-29644.469999999998,-4973.804999999999,-23557.905,-31699.125,-22036.86,-10661.715,12853.125
-4374.72,-29650.004999999997,-4982.175,-23563.62,-31705.649999999998,-22043.835,-10666.664999999999,12848.625
-4373.595,-29646.36,-4981.41,-23563.079999999998,-31710.465,-22043.52,-10669.904999999999,12847.949999999999
-4366.17,-29633.219999999998,-4970.295,-23552.37,-31698.855,-22018.905,-10670.49,12851.01
-4353.345,-29618.414999999997,-4957.29,-23536.215,-31678.92,-21995.28,-10670.039999999999,12859.83
-4355.37,-29622.285,-4961.655,-23539.14,-31683.6,-21997.71,-10672.244999999999,12858.75
-4355.639999999999,-29625.48,-4968.72,-23548.094999999998,-31699.89,-22001.94,-10669.59,12861.269999999999
-4356.09,-29625.57,-4973.535,-23548.05,-31701.78,-21993.12,-10672.38,12860.279999999999
-4358.115,-29630.25,-4982.67,-23551.605,-31705.245,-21991.545,-10670.445,12860.324999999999
-4364.505,-29638.079999999998,-4993.065,-23559.344999999998,-31713.344999999998,-21996.765,-10669.545,12857.984999999999
-4374.8099999999995,-29649.329999999998,-5004.8099999999995,-23571.989999999998,-31725.539999999997,-22006.079999999998,-10668.195,12851.324999999999
-4377.42,-29651.265,-5005.304999999999,-23574.645,-31726.215,-22004.37,-10672.38,12848.4
-4375.17,-29648.879999999997,-5002.83,-23572.44,-31723.379999999997,-22001.219999999998,-10675.845,12850.019999999999
-4366.53,-29636.684999999998,-4991.625,-23561.055,-31710.914999999997,-21990.105,-10685.925,12856.68
-4366.845,-29635.605,-4990.32,-23558.805,-31707.0,-21979.754999999997,-10684.125,12859.56
-4368.69,-29639.07,-4991.67,-23562.27,-31708.44,-21979.98,-10684.44,12856.59
-4367.61,-29639.52,-4995.179999999999,-23571.809999999998,-31719.329999999998,-21984.12,-10685.07,12856.859999999999
-4372.245,-29641.545,-4995.63,-23571.315,-31716.765,-21979.53,-10686.869999999999,12854.835
-4375.845,-29646.315,-4997.745,-23572.44,-31715.73,-21980.024999999998,-10681.47,12852.945
-4383.9,-29654.954999999998,-5006.565,-23578.02,-31723.515,-21985.425,-10686.42,12844.755
-4383.99,-29654.145,-5006.7,-23573.475,-31725.405,-21982.364999999998,-10690.199999999999,12842.46
-4379.445,-29647.53,-5002.47,-23564.475,-31721.129999999997,-21975.704999999998,-10690.335,12844.755
-4372.605,-29641.59,-5001.615,-23557.95,-31715.414999999997,-21967.29,-10688.715,12851.46
-4380.389999999999,-29652.164999999997,-5016.42,-23568.12,-31725.809999999998,-21973.995,-10683.225,12848.085
-4371.345,-29641.86,-5006.835,-23556.78,-31713.84,-21959.594999999998,-10686.914999999999,12853.17
-4381.92,-29653.649999999998,-5017.679999999999,-23568.57,-31721.805,-21966.795,-10693.395,12846.285
-4379.04,-29651.039999999997,-5012.19,-23565.105,-31717.98,-21963.015,-10693.395,12850.38
-4385.474999999999,-29659.5,-5009.355,-23571.54,-31724.414999999997,-21970.17,-10691.595,12845.43
-4377.78,-29649.78,-4987.889999999999,-23561.37,-31716.225,-21961.305,-10695.24,12850.83
-4378.68,-29651.445,-4981.095,-23562.585,-31717.98,-21958.965,-10695.285,12852.135
-4383.45,-29658.78,-4980.735,-23570.46,-31724.28,-21958.379999999997,-10695.869999999999,12850.47
-4396.23,-29674.485,-4988.97,-23587.515,-31737.78,-21967.155,-10693.89,12843.675
-4394.79,-29673.0,-4981.139999999999,-23587.379999999997,-31736.879999999997,-21968.19,-10697.22,12847.275
-4398.705,-29677.32,-4980.825,-23591.835,-31741.155,-21974.625,-10698.525,12843.404999999999
-4389.75,-29665.53,-4966.47,-23579.73,-31725.855,-21957.704999999998,-10700.955,12847.635
-4402.53,-29680.155,-4979.429999999999,-23590.665,-31731.66,-21965.625,-10704.285,12839.085
-4404.555,-29680.469999999998,-4979.115,-23586.3,-31726.395,-21961.844999999998,-10706.85,12836.88
-4406.535,-29685.735,-4989.554999999999,-23599.934999999998,-31744.574999999997,-21972.195,-10704.42,12839.175
-4405.005,-29683.844999999998,-4987.71,-23599.44,-31743.27,-21967.515,-10705.904999999999,12843.765
-4412.025,-29689.289999999997,-4992.929999999999,-23602.905,-31741.829999999998,-21967.605,-10707.345,12837.285
-4414.365,-29691.855,-4999.095,-23608.17,-31744.62,-21969.675,-10711.664999999999,12835.17
-4418.19,-29699.864999999998,-5009.04,-23615.73,-31750.965,-21974.355,-10708.74,12835.89
-4410.045,-29690.684999999998,-5001.57,-23611.14,-31744.079999999998,-21964.14,-10710.225,12842.505
-4406.715,-29685.195,-4999.1849999999995,-23609.835,-31741.559999999998,-21959.504999999997,-10716.66,12845.609999999999
-4397.94,-29670.66,-4989.0599999999995,-23601.69,-31731.93,-21948.434999999998,-10722.195,12847.859999999999
-4399.38,-29671.245,-4993.065,-23603.76,-31733.28,-21947.67,-10713.285,12845.385
-4401.99,-29670.03,-4993.695,-23601.465,-31731.75,-21940.02,-10710.9,12843.494999999999
-4412.07,-29681.864999999998,-5008.59,-23613.795,-31744.26,-21944.43,-10711.035,12837.195
-4413.33,-29687.489999999998,-5017.455,-23625.495,-31756.23,-21951.135,-10709.055,12836.744999999999
-4412.295,-29685.105,-5015.79,-23625.54,-31752.315,-21947.67,-10713.869999999999,12836.97
-4409.505,-29680.695,-5013.135,-23623.11,-31745.024999999998,-21940.245,-10714.994999999999,12839.715
-4402.3949999999995,-29671.829999999998,-5004.135,-23612.489999999998,-31733.28,-21925.35,-10716.93,12845.115
-4409.46,-29681.414999999997,-5015.295,-23620.59,-31739.219999999998,-21928.59,-10715.265,12839.535
-4404.42,-29673.405,-5009.715,-23613.03,-31729.41,-21920.985,-10720.44,12840.57
-4385.61,-29650.5,-4987.349999999999,-23590.844999999998,-31705.065,-21899.475,-10722.24,12851.73
-4385.61,-29654.1,-4988.61,-23594.579999999998,-31705.199999999997,-21899.79,-10720.8,12853.71
-4390.92,-29662.515,-4993.74,-23602.454999999998,-31711.32,-21900.78,-10717.289999999999,12852.585
-4392.045,-29660.355,-4990.635,-23598.135,-31708.17,-21899.79,-10720.035,12850.515
-4396.545,-29663.37,-4993.38,-23599.62,-31712.175,-21904.829999999998,-10719.72,12844.26
-4394.5199999999995,-29660.265,-4991.264999999999,-23596.965,-31713.57,-21905.37,-10721.565,12845.475
-4387.23,-29652.704999999998,-4981.815,-23589.989999999998,-31710.375,-21902.129999999997,-10723.904999999999,12852.494999999999
-4393.17,-29656.844999999998,-4985.054999999999,-23593.23,-31717.89,-21905.864999999998,-10728.0,12845.609999999999
-4395.78,-29656.44,-4984.785,-23588.235,-31715.774999999998,-21898.079999999998,-10731.645,12844.89
-4388.805,-29649.555,-4977.315,-23575.95,-31703.355,-21880.17,-10730.609999999999,12853.755
-4384.44,-29645.01,-4973.715,-23573.745,-31702.77,-21877.515,-10726.199999999999,12857.085
-4396.23,-29659.23,-4988.16,-23590.305,-31717.485,-21885.84,-10721.205,12849.795
-4400.19,-29663.594999999998,-4993.29,-23595.48,-31720.905,-21887.46,-10721.25,12846.33
-4398.84,-29660.94,-4994.37,-23598.135,-31719.735,-21886.829999999998,-10724.265,12847.095
-4388.849999999999,-29648.969999999998,-4986.72,-23590.44,-31708.305,-21875.129999999997,-10731.42,12853.574999999999
-4396.455,-29656.844999999998,-4999.139999999999,-23602.815,-31714.695,-21875.85,-10729.755,12850.199999999999
-4397.04,-29657.25,-5005.755,-23610.96,-31718.52,-21875.219999999998,-10726.244999999999,12852.225
-4389.84,-29651.309999999998,-5004.2699999999995,-23609.114999999998,-31718.34,-21872.34,-10726.425,12858.164999999999
-4402.305,-29666.565,-5023.08,-23622.75,-31731.795,-21882.6,-10721.565,12851.55
-4401.495,-29663.1,-5022.224999999999,-23618.969999999998,-31728.42,-21880.17,-10722.51,12852.945
-4391.6849999999995,-29649.555,-5008.7699999999995,-23604.84,-31714.425,-21865.14,-10728.675,12859.92
-4403.7,-29665.844999999998,-5027.3099999999995,-23621.715,-31732.739999999998,-21878.864999999998,-10729.035,12853.71
-4401.764999999999,-29666.295,-5029.155,-23622.795,-31731.93,-21870.855,-10727.279999999999,12859.109999999999
-4403.5199999999995,-29667.42,-5031.2699999999995,-23625.18,-31732.245,-21866.94,-10726.965,12858.75
-4404.375,-29666.969999999998,-5031.675,-23625.719999999998,-31731.885,-21869.64,-10728.404999999999,12856.904999999999
-4408.425,-29669.265,-5034.825,-23628.6,-31733.414999999997,-21874.545,-10730.789999999999,12853.08
-4414.7699999999995,-29674.664999999997,-5041.035,-23632.155,-31733.73,-21875.219999999998,-10732.275,12846.734999999999
-4406.535,-29662.829999999998,-5031.2699999999995,-23625.0,-31724.37,-21862.44,-10738.664999999999,12851.234999999999
-4415.8949999999995,-29675.295,-5046.255,-23642.325,-31737.465,-21869.82,-10733.58,12848.22
-4414.7699999999995,-29673.045,-5046.885,-23645.475,-31734.315,-21866.129999999997,-10733.22,12850.109999999999
-4402.575,-29655.495,-5033.655,-23632.155,-31719.149999999998,-21849.66,-10741.365,12856.769999999999
-4402.17,-29650.995,-5035.5,-23631.704999999998,-31719.015,-21843.945,-10747.664999999999,12857.58
-4398.705,-29646.315,-5033.34,-23629.95,-31716.36,-21836.565,-10746.135,12858.885
-4400.955,-29648.52,-5036.715,-23634.719999999998,-31717.485,-21833.504999999997,-10743.39,12857.4
-4410.224999999999,-29660.039999999997,-5048.865,-23647.004999999997,-31726.71,-21839.085,-10734.93,12853.125
-4404.24,-29651.219999999998,-5042.745,-23639.579999999998,-31721.309999999998,-21830.715,-10736.505,12857.984999999999
-4409.82,-29658.059999999998,-5053.139999999999,-23648.265,-31728.824999999997,-21835.844999999998,-10735.199999999999,12854.519999999999
-4412.474999999999,-29661.39,-5062.455,-23654.925,-31733.414999999997,-21839.355,-10736.595,12854.88
-4405.995,-29652.795,-5058.09,-23650.11,-31725.945,-21830.895,-10738.98,12862.08
-4405.545,-29653.245,-5060.295,-23649.344999999998,-31722.12,-21829.23,-10740.24,12864.15
-4402.305,-29650.454999999998,-5056.29,-23644.665,-31718.565,-21826.98,-10743.345,12864.285
-4410.72,-29662.605,-5067.54,-23655.735,-31729.68,-21833.1,-10742.76,12859.785
-4429.125,-29685.42,-5092.83,-23682.195,-31756.094999999998,-21852.765,-10737.09,12850.695
-4434.345,-29689.515,-5094.855,-23684.579999999998,-31761.135,-21855.105,-10741.23,12847.5
