ch_0,ch_1,ch_2,ch_3,ch_4,ch_5,ch_6,ch_7
-11048.355,-46025.009999999995,-13551.57,-41954.22,-22119.165,-10338.164999999999,-6050.969999999999,5662.3949999999995
-11011.545,-47158.38,-14050.664999999999,-41814.18,-21974.355,-10221.119999999999,-5968.215,5930.505
-10634.76,-48270.869999999995,-14033.16,-41642.1,-21946.23,-10301.625,-6059.115,6208.38
-10314.225,-47593.575,-13193.775,-41596.965,-22171.68,-10634.67,-6302.5199999999995,6178.1849999999995
-10307.925,-46626.21,-12512.744999999999,-41599.89,-22350.329999999998,-10861.109999999999,-6414.75,5868.764999999999
-10377.045,-46530.27,-12434.67,-41719.14,-22400.864999999998,-10809.27,-6307.785,5891.67
-10266.029999999999,-46667.115,-12473.595,-41804.685,-22418.73,-10756.17,-6238.08,6135.57
-10114.289999999999,-46530.494999999995,-12370.994999999999,-41875.92,-22539.645,-10847.97,-6271.65,6314.94
-9993.465,-46478.34,-12371.715,-42046.784999999996,-22723.829999999998,-10983.015,-6348.735,6479.594999999999
-10057.725,-46440.494999999995,-12345.705,-42010.335,-22599.18,-10800.765,-6502.41,6397.2
-10246.59,-46186.784999999996,-12134.205,-41891.715,-22449.105,-10571.49,-6702.255,6116.67
-10351.125,-46334.07,-12154.05,-41956.155,-22561.11,-10674.945,-6624.855,6070.545
-10436.715,-46788.57,-12254.13,-42135.93,-22827.465,-10966.68,-6318.2699999999995,6132.6449999999995
-10428.255,-46916.865,-12234.42,-42271.29,-23029.425,-11092.545,-6182.594999999999,6139.304999999999
-10339.875,-46894.095,-12138.119999999999,-42238.439999999995,-23019.48,-11082.015,-6327.764999999999,6228.675
-10289.34,-46745.28,-11957.039999999999,-42164.369999999995,-22872.105,-10945.574999999999,-6417.764999999999,6280.65
-10299.465,-46523.61,-11803.005,-42203.295,-22905.225,-10999.17,-6376.5,6259.724999999999
-10428.885,-46498.814999999995,-11739.555,-42287.985,-23001.03,-11181.824999999999,-6164.775,6209.415
-10572.074999999999,-46662.345,-11735.955,-42225.705,-22794.21,-10870.605,-6143.219999999999,6070.905
-10345.275,-46782.405,-11719.845,-42075.045,-22854.87,-10531.98,-6404.4,6182.955
-10034.145,-46802.34,-11709.63,-42120.81,-23294.565,-10578.69,-6561.63,6361.74
-9894.195,-46511.145,-11549.744999999999,-42606.09,-24173.145,-11024.324999999999,-6438.509999999999,6444.2699999999995
-9945.494999999999,-46416.915,-11550.465,-43035.75,-24760.305,-11600.279999999999,-6070.1849999999995,6416.6849999999995
-10172.07,-46506.645,-11558.295,-42764.49,-24162.254999999997,-11657.835,-6136.469999999999,6218.37
-10318.14,-46538.28,-11455.515,-42287.939999999995,-23292.719999999998,-11722.635,-6416.37,6069.0599999999995
-10373.984999999999,-46554.479999999996,-11391.255,-41765.895,-22404.42,-11502.99,-6769.665,6006.105
-10396.89,-46646.369999999995,-11342.025,-41525.595,-21919.59,-10915.425,-6871.139999999999,5995.71
-10377.72,-46568.97,-11364.84,-41841.09,-22226.355,-10678.14,-6522.884999999999,6035.3099999999995
-10453.77,-46396.979999999996,-11409.705,-42176.564999999995,-22597.379999999997,-10749.15,-6072.929999999999,5998.635
-10519.02,-46300.545,-11358.494999999999,-42203.025,-22708.844999999998,-10995.93,-5860.575,5960.025
-10648.395,-46210.725,-11321.279999999999,-41855.85,-22266.495,-10894.635,-5985.719999999999,5924.5199999999995
-10722.195,-46828.979999999996,-11444.984999999999,-41475.735,-21678.48,-10610.955,-6003.405,5996.969999999999
-10530.539999999999,-47080.665,-11440.664999999999,-41420.655,-21444.795,-10362.69,-6011.594999999999,6126.75
-10452.69,-46832.13,-11363.355,-41559.84,-21555.809999999998,-10253.88,-6187.59,6124.905
-10459.98,-46757.924999999996,-11333.07,-41721.975,-21855.195,-10341.315,-6409.08,6031.62
-10363.32,-46652.939999999995,-11426.175,-41916.195,-22226.175,-10592.414999999999,-6583.724999999999,5957.01
-10432.215,-46330.335,-11496.51,-42016.77,-22390.515,-10734.164999999999,-6603.389999999999,5861.5199999999995
-10760.895,-46297.799999999996,-11612.564999999999,-42053.445,-22414.995,-10803.914999999999,-6284.16,5811.255
-10954.305,-47060.145,-11891.43,-42104.34,-22362.165,-10661.76,-5944.679999999999,5891.76
-10833.885,-47399.085,-11879.145,-41956.65,-22153.23,-10407.51,-6042.014999999999,5951.295
-10672.92,-47363.67,-11934.855,-41960.385,-22203.09,-10439.055,-6098.264999999999,6024.195
-10651.095,-46842.075,-11746.439999999999,-41984.729999999996,-22320.045,-10580.895,-6157.889999999999,5878.71
-10730.654999999999,-46481.22,-11594.609999999999,-41963.715,-22287.6,-10561.23,-6163.38,5691.195
-10701.539999999999,-46579.005,-11780.369999999999,-41931.854999999996,-22239.27,-10536.39,-6170.535,5817.51
-10708.335,-46868.49,-11880.9,-41943.689999999995,-22289.579999999998,-10583.1,-6216.974999999999,5861.5199999999995
-10648.035,-46857.33,-11677.365,-41917.229999999996,-22415.265,-10715.085,-6267.014999999999,5808.78
-10544.805,-46405.979999999996,-11414.205,-41913.18,-22527.54,-10817.055,-6292.3949999999995,5941.889999999999
-10387.71,-46703.88,-11587.14,-41978.61,-22604.355,-10839.375,-6207.57,6257.205
-10143.225,-46980.18,-11807.234999999999,-42035.4,-22690.754999999997,-10909.35,-6176.385,6466.634999999999
-10050.57,-46670.805,-11595.6,-42045.615,-22757.085,-10988.64,-6268.23,6426.36
-10045.35,-46392.345,-11500.38,-42039.045,-22715.73,-10912.77,-6330.69,6252.4349999999995
-10296.27,-46351.755,-11673.675,-42122.07,-22718.52,-10767.645,-6359.04,6030.36
-10543.095,-46690.965,-12000.42,-42204.735,-22705.829999999998,-10634.265,-6327.315,5889.87
-10639.71,-47042.325,-12034.17,-42056.64,-22486.454999999998,-10467.945,-6233.58,5862.465
-10647.72,-46610.775,-11631.51,-41904.494999999995,-22410.945,-10508.49,-6193.62,5619.195
-10885.005,-46152.9,-11325.734999999999,-41716.665,-22262.76,-10475.73,-6158.429999999999,5332.905
-10941.57,-46310.85,-11472.66,-41705.909999999996,-22103.01,-10324.89,-6089.13,5668.74
-10788.885,-47106.09,-11802.6,-41779.665,-22100.625,-10342.035,-5970.24,6132.465
-10264.32,-47418.345,-11932.244999999999,-41883.975,-22320.809999999998,-10623.645,-6025.7699999999995,6518.835
-9747.72,-46846.395,-11651.625,-41930.82,-22552.155,-10892.789999999999,-6160.005,6690.42
-9723.24,-46407.104999999996,-11421.945,-42014.88,-22707.0,-10957.904999999999,-6343.5599999999995,6571.9349999999995
-9890.595,-46276.11,-11505.15,-42238.395,-22858.425,-10856.25,-6609.42,6373.26
-9971.685,-46135.395,-11646.27,-42429.78,-23021.1,-10793.789999999999,-6752.205,6148.3949999999995
-9999.494999999999,-46072.034999999996,-11641.725,-42554.88,-23122.305,-10782.494999999999,-6648.3,6092.91
-10149.885,-46314.27,-11633.265,-42581.205,-23237.504999999997,-10949.13,-6464.384999999999,6165.045
-10363.23,-46898.189999999995,-11781.63,-42445.395,-23231.114999999998,-10948.365,-6371.19,6274.349999999999
-10312.74,-47005.695,-11746.619999999999,-42308.505,-23204.295,-10890.27,-6460.469999999999,6250.32
-10161.359999999999,-46583.595,-11634.615,-42423.255,-23460.524999999998,-11220.119999999999,-6421.634999999999,6255.315
-10202.85,-46408.14,-11593.574999999999,-42382.71,-23407.02,-11504.789999999999,-6346.62,6223.365
-10316.43,-46626.21,-11643.164999999999,-42141.284999999996,-23063.265,-11738.43,-6246.2699999999995,6228.99
-10423.574999999999,-46871.82,-11754.09,-41829.479999999996,-22486.77,-11381.535,-6258.375,6137.505
-10451.97,-46767.24,-11722.814999999999,-41695.83,-22010.265,-10593.765,-6480.9,6066.36
-10397.07,-46541.384999999995,-11593.935,-41694.795,-21918.015,-10346.94,-6616.08,6087.599999999999
-10405.845,-46546.424999999996,-11643.795,-41813.729999999996,-22077.765,-10524.375,-6357.554999999999,6112.035
-10413.63,-46907.865,-11826.225,-41961.195,-22211.64,-10712.97,-6061.59,6103.125
-10468.8,-46773.585,-11861.279999999999,-41996.88,-22189.59,-10682.64,-6131.565,6010.2
-10470.734999999999,-46634.895,-11799.09,-41971.77,-22140.54,-10537.965,-6199.469999999999,6003.9
-10353.195,-46495.485,-11694.645,-41935.5,-22161.015,-10374.164999999999,-6291.405,6111.945
-10268.775,-46589.174999999996,-11753.324999999999,-41951.88,-22313.385,-10400.175,-6326.82,6204.42
-10315.98,-46843.965,-11947.814999999999,-42038.145,-22496.489999999998,-10669.545,-6170.985,6225.075
-10486.484999999999,-46895.354999999996,-12003.615,-42084.045,-22620.645,-10890.225,-6072.885,6070.41
-10652.22,-46902.96,-12021.255,-42032.295,-22491.315,-10758.015,-6249.24,5932.17
-10662.57,-47090.34,-12020.039999999999,-42020.909999999996,-22391.954999999998,-10565.91,-6295.905,5956.965
-10455.435,-47042.729999999996,-12037.095,-42235.155,-22671.989999999998,-10616.4,-6272.73,6064.65
-10268.595,-46699.2,-11991.42,-42442.244999999995,-23017.995,-10822.05,-6151.905,6151.59
-10327.14,-46519.695,-12011.039999999999,-42471.135,-23099.579999999998,-10903.814999999999,-5997.825,6114.0599999999995
-10581.795,-46514.655,-12086.1,-42280.92,-22818.239999999998,-10950.48,-6083.594999999999,5937.3
-10807.83,-46648.575,-12151.439999999999,-41978.52,-22397.265,-10750.095,-6167.745,5829.705
-10893.914999999999,-47064.465,-12258.359999999999,-41886.945,-22256.774999999998,-10623.33,-6138.315,5887.125
-10651.365,-47332.619999999995,-12224.699999999999,-41878.395,-22280.715,-10603.305,-6147.315,5975.28
-10393.47,-46907.955,-11978.55,-41848.65,-22271.76,-10577.744999999999,-6219.764999999999,5959.71
-10398.824999999999,-46671.84,-11927.97,-41869.53,-22282.695,-10565.865,-6260.04,5948.594999999999
-10477.664999999999,-46623.42,-11951.595,-41900.67,-22306.86,-10588.904999999999,-6281.054999999999,5950.665
-10492.515,-46630.979999999996,-11961.63,-41942.43,-22313.52,-10582.065,-6286.679999999999,5967.585
-10511.595,-46653.479999999996,-11820.285,-41880.915,-22275.585,-10532.88,-6285.825,5978.925
-10461.779999999999,-46502.64,-11679.705,-41851.755,-22296.015,-10551.734999999999,-6274.8,5979.465
-10468.98,-46671.975,-11820.015,-41956.515,-22334.805,-10570.725,-6232.139999999999,5985.405
-10485.18,-46835.369999999995,-11959.965,-42075.72,-22369.905,-10576.8,-6224.219999999999,5971.365
-10520.414999999999,-46827.54,-11819.609999999999,-41933.43,-22275.495,-10488.555,-6257.25,5886.585
-10615.14,-46687.095,-11572.064999999999,-41720.895,-22159.62,-10371.645,-6249.33,5706.315
-10449.09,-46728.854999999996,-11442.375,-41722.424999999996,-22216.41,-10420.74,-6212.745,5889.78
-10317.779999999999,-46480.905,-11320.515,-41838.93,-22424.625,-10650.33,-6292.53,6064.83
-10172.205,-46357.515,-11376.314999999999,-42029.369999999995,-22635.315,-10818.18,-6300.045,6195.554999999999
-10077.705,-46375.604999999996,-11478.645,-42202.08,-22781.024999999998,-10922.445,-6297.3,6297.57
-10202.625,-46566.72,-11548.619999999999,-42196.545,-22714.92,-10855.08,-6271.695,6276.105
-10418.67,-46940.265,-11555.279999999999,-42089.4,-22567.454999999998,-10710.539999999999,-6222.195,6207.48
-10460.835,-46908.314999999995,-11407.725,-42064.965,-22600.17,-10772.234999999999,-6308.775,6073.785
-10535.265,-46500.39,-11239.289999999999,-42050.43,-22578.12,-10762.335,-6415.695,5868.09
-10693.44,-46402.56,-11255.85,-42147.945,-22600.395,-10719.81,-6385.275,5803.0199999999995
-10671.525,-46640.205,-11365.875,-42219.045,-22594.14,-10619.279999999999,-6246.315,5962.86
-10500.39,-47198.564999999995,-11478.24,-42186.24,-22582.44,-10570.59,-6131.205,6182.6849999999995
-10248.119999999999,-47190.42,-11297.88,-42103.53,-22663.89,-10714.185,-6246.09,6241.635
-10087.875,-46707.165,-11066.4,-42095.88,-22830.704999999998,-10854.945,-6458.804999999999,6235.29
-10103.355,-46706.174999999996,-11031.21,-42172.83,-22951.844999999998,-10867.904999999999,-6528.6449999999995,6245.01
-10205.01,-46751.939999999995,-11037.375,-42266.835,-23022.045,-10860.345,-6310.304999999999,6202.755
-10276.065,-46739.52,-10995.84,-42265.755,-23029.695,-10992.465,-6177.014999999999,6157.485
-10367.64,-46830.509999999995,-10972.35,-42140.34,-22837.86,-11055.465,-6253.92,6097.41
-10456.065,-46897.2,-10987.38,-42011.415,-22512.69,-10888.56,-6331.23,5988.105
-10419.48,-46795.77,-10944.585,-42029.865,-22397.579999999998,-10632.734999999999,-6494.49,5968.71
-10347.48,-46654.2,-10834.47,-42093.945,-22498.739999999998,-10408.095,-6665.264999999999,5976.405
-10249.02,-46521.585,-10726.47,-42169.14,-22770.45,-10529.369999999999,-6570.09,6089.4
-10278.99,-46644.615,-10830.914999999999,-42390.854999999996,-23194.35,-10883.115,-6141.42,6187.455
-10386.945,-46808.64,-10938.555,-42519.689999999995,-23400.405,-11028.195,-5945.264999999999,6162.21
-10470.6,-46832.265,-10880.055,-42386.534999999996,-23161.14,-10921.23,-6095.79,6061.005
-10511.82,-46864.935,-10792.305,-42337.485,-22893.12,-10665.945,-6240.87,5984.054999999999
-10431.494999999999,-46818.63,-10767.195,-42421.635,-22823.37,-10580.175,-6382.304999999999,5999.804999999999
-10328.22,-46698.299999999996,-10692.045,-42393.104999999996,-22810.725,-10708.92,-6563.16,6022.844999999999
-10261.529999999999,-46522.034999999996,-10527.885,-42139.845,-22634.91,-10860.57,-6669.63,6015.915
-10312.965,-46473.39,-10469.52,-41900.67,-22306.364999999998,-10861.695,-6487.695,6006.69
-10493.055,-46687.14,-10567.8,-41945.354999999996,-22279.905,-10793.654999999999,-6133.139999999999,5988.285
-10609.65,-46889.189999999995,-10606.5,-41935.275,-22257.135,-10562.805,-6085.44,5939.28
-10676.97,-46976.49,-10583.46,-41707.439999999995,-22027.815,-10372.095,-6180.66,5870.429999999999
-10625.039999999999,-46697.85,-10509.84,-41671.755,-22032.855,-10415.654999999999,-6228.315,5838.075
-10458.81,-46411.47,-10540.44,-41875.83,-22219.965,-10534.994999999999,-6226.245,5879.745
-10525.005,-46419.57,-10607.984999999999,-41973.975,-22241.07,-10499.355,-6258.105,5905.485
-10674.494999999999,-46906.02,-10647.18,-41934.689999999995,-22165.829999999998,-10414.17,-6212.474999999999,5993.6849999999995
-10570.455,-47361.689999999995,-10649.16,-41916.735,-22206.285,-10436.76,-6144.929999999999,6087.24
-10512.765,-47055.869999999995,-10576.664999999999,-41998.229999999996,-22404.015,-10585.125,-6215.8949999999995,6028.875
-10534.815,-46845.18,-10526.94,-42023.34,-22420.44,-10497.33,-6286.455,5953.32
-10582.199999999999,-46907.685,-10567.44,-42010.965,-22380.21,-10435.185,-6288.705,5932.8
-10594.935,-46910.835,-10544.175,-41951.79,-22332.825,-10428.029999999999,-6271.425,5915.88
-10578.734999999999,-46839.6,-10445.895,-41971.185,-22399.649999999998,-10470.914999999999,-6271.785,5883.705
-10465.335,-46687.365,-10457.505,-42040.619999999995,-22463.1,-10502.64,-6281.01,5907.42
-10457.82,-46816.83,-10643.67,-42157.619999999995,-22559.489999999998,-10583.324999999999,-6248.5199999999995,5987.115
-10428.795,-46957.14,-10733.805,-42211.439999999995,-22646.835,-10701.855,-6183.585,6076.98
-10439.91,-46632.6,-10588.949999999999,-42150.15,-22602.195,-10709.82,-6237.179999999999,5955.705
-10427.13,-46438.784999999996,-10496.115,-42077.52,-22510.485,-10635.93,-6291.945,5894.955
-10475.955,-46461.735,-10502.414999999999,-42063.705,-22487.715,-10579.77,-6286.23,5919.344999999999
-10545.029999999999,-46840.32,-10545.57,-42031.755,-22445.325,-10502.505,-6216.929999999999,6014.205
-10371.645,-47180.475,-10603.529999999999,-42006.689999999995,-22450.86,-10489.859999999999,-6189.389999999999,6116.445
