ch_0,ch_1,ch_2,ch_3,ch_4,ch_5,ch_6,ch_7
-13865.76,-41900.534999999996,-7664.219999999999,-22294.844999999998,2344.68,-46444.185,3380.58,-7578.09
-13810.59,-41830.29,-7613.82,-22284.18,2268.495,-46575.09,3349.845,-7549.38
-13745.654999999999,-41749.29,-7546.59,-22248.765,2223.54,-46638.63,3304.7549999999997,-7511.355
-13753.8,-41763.104999999996,-7556.58,-22252.364999999998,2230.11,-46633.545,3287.79,-7512.165
-13813.425,-41841.945,-7619.535,-22281.48,2274.12,-46579.32,3306.285,-7543.9349999999995
-13868.82,-41915.159999999996,-7674.884999999999,-22299.84,2342.115,-46500.479999999996,3339.27,-7576.245
-13898.295,-41954.265,-7704.45,-22313.204999999998,2368.845,-46471.545,3365.73,-7592.804999999999
-13900.859999999999,-41957.325,-7707.915,-22319.73,2359.08,-46486.215,3373.605,-7596.855
-13896.494999999999,-41952.195,-7706.25,-22325.129999999997,2343.7799999999997,-46509.39,3372.975,-7596.2699999999995
-13881.465,-41931.99,-7692.795,-22321.844999999998,2323.395,-46535.58,3360.6,-7590.014999999999
-13837.814999999999,-41875.424999999996,-7645.1849999999995,-22296.285,2303.46,-46562.354999999996,3335.7599999999998,-7568.1449999999995
-13800.42,-41820.165,-7608.014999999999,-22300.875,2213.0099999999998,-46662.255,3297.285,-7551.945
-13733.55,-41733.045,-7539.03,-22276.44,2141.8199999999997,-46742.985,3247.47,-7515.495
-13725.449999999999,-41726.655,-7537.59,-22288.094999999998,2110.6349999999998,-46815.705,3238.1099999999997,-7512.165
-13733.91,-41744.115,-7543.889999999999,-22274.504999999997,2190.1949999999997,-46894.365,3257.1,-7518.87
-13770.63,-41795.865,-7566.344999999999,-22240.754999999997,2278.935,-46853.189999999995,3253.9049999999997,-7535.924999999999
-13871.88,-41929.47,-7671.69,-22270.86,2383.875,-46479.915,3291.66,-7574.535
-13943.07,-42011.865,-7743.554999999999,-22308.614999999998,2448.36,-46294.965,3304.17,-7619.715
-13935.33,-42002.729999999996,-7744.005,-22323.015,2432.97,-46339.695,3320.64,-7613.28
-13916.07,-41976.314999999995,-7723.125,-22313.25,2425.14,-46353.555,3312.3599999999997,-7606.889999999999
-13844.789999999999,-41886.225,-7647.84,-22273.875,2384.73,-46438.83,3288.87,-7571.429999999999
-13779.585,-41797.034999999996,-7577.639999999999,-22251.059999999998,2312.595,-46541.205,3251.8799999999997,-7538.804999999999
-13712.715,-41705.549999999996,-7504.5599999999995,-22227.975,2253.5099999999998,-46728.765,3227.4449999999997,-7510.139999999999
-13660.875,-41649.03,-7453.575,-22195.844999999998,2212.785,-46984.32,3195.9449999999997,-7481.745
-13741.064999999999,-41763.375,-7539.255,-22210.92,2293.83,-46653.119999999995,3186.585,-7507.259999999999
-13880.699999999999,-41938.695,-7691.355,-22297.14,2377.845,-46273.68,3258.4049999999997,-7578.54
-13877.685,-41931.405,-7677.09,-22271.895,2452.23,-46311.975,3260.8799999999997,-7588.215
-13824.855,-41875.56,-7630.92,-22250.879999999997,2402.595,-46509.479999999996,3287.475,-7554.87
-13791.015,-41832.405,-7598.34,-22258.305,2301.795,-46687.59,3300.75,-7540.29
-13811.445,-41850.18,-7609.95,-22251.239999999998,2347.02,-46510.155,3276.9449999999997,-7556.49
-13833.314999999999,-41870.97,-7630.785,-22257.675,2387.52,-46304.82,3250.7549999999997,-7570.125
-13740.164999999999,-41756.22,-7539.389999999999,-22224.42,2284.74,-46554.21,3225.645,-7516.08
-13662.72,-41659.155,-7460.505,-22189.41,2224.305,-46767.015,3201.795,-7471.889999999999
-13654.529999999999,-41657.67,-7456.679999999999,-22177.53,2220.12,-46847.34,3206.115,-7460.28
-13789.619999999999,-41827.365,-7588.3949999999995,-22216.004999999997,2386.665,-46472.58,3198.24,-7529.13
-13885.56,-41942.79,-7683.929999999999,-22268.385,2475.855,-46222.965,3219.48,-7586.1449999999995
-13884.48,-41941.26,-7683.389999999999,-22276.125,2457.72,-46319.759999999995,3241.845,-7591.7699999999995
-13878.09,-41935.14,-7679.34,-22277.52,2424.555,-46394.369999999995,3258.6299999999997,-7588.259999999999
-13872.06,-41926.005,-7666.92,-22260.915,2445.5699999999997,-46386.0,3256.02,-7587.405
-13844.07,-41892.255,-7641.495,-22258.665,2407.77,-46449.854999999996,3247.83,-7575.389999999999
-13826.07,-41866.92,-7628.58,-22268.204999999998,2352.105,-46508.265,3234.375,-7566.929999999999
-13754.744999999999,-41771.295,-7552.035,-22230.54,2300.22,-46580.13,3187.08,-7530.075
-13711.14,-41716.125,-7509.33,-22220.325,2233.125,-46674.314999999995,3151.395,-7502.219999999999
-13739.85,-41750.729999999996,-7540.245,-22240.844999999998,2229.615,-46678.095,3133.935,-7517.429999999999
-13779.314999999999,-41803.83,-7577.37,-22239.18,2321.415,-46549.89,3136.41,-7537.005
-13837.23,-41883.525,-7638.344999999999,-22260.915,2386.845,-46473.705,3171.555,-7567.245
-13873.769999999999,-41929.515,-7678.259999999999,-22291.29,2396.745,-46478.115,3203.2799999999997,-7593.795
-13844.385,-41893.965,-7652.655,-22299.12,2362.005,-46633.77,3209.4449999999997,-7585.155
-13781.295,-41826.465,-7599.915,-22281.39,2246.085,-46837.17,3209.7599999999998,-7545.014999999999
-13854.105,-41911.064999999995,-7663.455,-22294.485,2276.2799999999997,-46579.455,3207.105,-7580.205
-13894.154999999999,-41936.31,-7686.54,-22302.135,2369.16,-46459.845,3184.02,-7619.804999999999
-13772.97,-41789.655,-7571.79,-22259.969999999998,2237.985,-46734.39,3133.17,-7551.45
-13749.164999999999,-41760.494999999995,-7555.455,-22265.145,2238.75,-46559.115,3078.0899999999997,-7530.705
-13723.515,-41721.075,-7515.405,-22236.75,2248.2,-46680.75,3053.6549999999997,-7525.53
-13712.445,-41719.994999999995,-7503.66,-22214.565,2198.745,-46889.685,3079.4849999999997,-7515.045
-13864.545,-41928.659999999996,-7672.005,-22265.504999999997,2372.7149999999997,-46454.04,3117.825,-7578.764999999999
-13996.35,-42083.415,-7809.48,-22351.23,2502.045,-46167.884999999995,3161.25,-7658.594999999999
-13939.47,-42009.03,-7749.179999999999,-22335.614999999998,2418.2999999999997,-46383.975,3166.1099999999997,-7637.264999999999
-13908.51,-41973.39,-7720.695,-22325.94,2369.295,-46473.705,3169.935,-7620.389999999999
-13889.699999999999,-41950.08,-7704.2699999999995,-22324.905,2336.58,-46511.325,3168.63,-7609.86
-13841.64,-41884.65,-7644.42,-22282.965,2328.0299999999997,-46521.27,3141.99,-7587.495
-13772.654999999999,-41792.939999999995,-7566.705,-22240.71,2293.47,-46588.365,3099.7799999999997,-7555.7699999999995
-13723.425,-41729.265,-7515.315,-22212.945,2270.745,-46639.53,3054.825,-7529.985
-13730.67,-41737.005,-7521.48,-22215.465,2281.275,-46606.32,3027.645,-7532.594999999999
-13792.14,-41818.68,-7591.905,-22261.995,2299.5899999999997,-46544.715,3057.435,-7560.764999999999
-13830.029999999999,-41865.659999999996,-7624.755,-22275.945,2333.61,-46549.619999999995,3088.035,-7585.335
-13824.09,-41866.515,-7618.5,-22259.969999999998,2374.65,-46731.78,3125.565,-7578.99
-13831.875,-41871.195,-7614.719999999999,-22239.629999999997,2415.33,-46764.18,3113.0099999999998,-7591.049999999999
-13851.539999999999,-41903.505,-7642.665,-22249.215,2403.9449999999997,-46486.215,3093.12,-7598.295
-13895.055,-41960.79,-7700.625,-22295.25,2401.335,-46304.82,3115.305,-7611.03
-13875.93,-41930.415,-7683.66,-22307.625,2349.045,-46395.854999999996,3111.21,-7606.304999999999
-13790.654999999999,-41818.365,-7591.005,-22258.53,2305.395,-46527.39,3061.755,-7565.58
-13733.505,-41748.525,-7535.7,-22236.03,2250.855,-46615.049999999996,3018.06,-7531.245
-13745.205,-41762.835,-7546.679999999999,-22243.094999999998,2247.8849999999998,-46623.915,2998.305,-7535.969999999999
-13809.24,-41842.53,-7607.835,-22269.42,2291.895,-46570.14,3013.65,-7571.295
-13864.005,-41914.845,-7662.554999999999,-22286.7,2363.7599999999998,-46531.439999999995,3051.4049999999997,-7604.235
-13906.935,-41964.615,-7701.389999999999,-22306.274999999998,2396.97,-46622.924999999996,3093.75,-7638.344999999999
-13899.465,-41960.52,-7702.74,-22319.37,2363.22,-46602.674999999996,3057.12,-7631.28
-13903.56,-41965.784999999996,-7715.565,-22349.114999999998,2292.0299999999997,-46449.945,3067.74,-7629.57
-13864.68,-41915.88,-7675.29,-22329.675,2302.83,-46510.695,3059.055,-7612.514999999999
-13780.125,-41811.885,-7588.17,-22287.195,2235.015,-46841.58,3051.1349999999998,-7564.86
-13742.369999999999,-41755.185,-7544.969999999999,-22273.649999999998,2195.91,-47008.17,3023.37,-7550.415
-13700.97,-41698.439999999995,-7494.615,-22243.184999999998,2109.87,-46876.545,2961.99,-7532.73
-13806.314999999999,-41829.21,-7597.98,-22270.454999999998,2204.775,-46453.365,2937.285,-7586.639999999999
-13851.945,-41880.96,-7632.99,-22265.55,2372.94,-46303.65,2918.835,-7616.25
-13843.394999999999,-41878.53,-7623.09,-22246.515,2402.0099999999998,-46391.265,2926.755,-7614.045
-13849.019999999999,-41902.335,-7647.21,-22262.489999999998,2423.565,-46490.265,2974.275,-7606.44
-13847.984999999999,-41907.869999999995,-7661.16,-22297.32,2353.14,-46677.195,3040.56,-7596.945
-13819.769999999999,-41861.564999999995,-7616.07,-22278.465,2290.14,-46814.13,3051.1349999999998,-7589.115
-13876.965,-41924.34,-7667.415,-22303.485,2298.375,-46579.725,2990.295,-7629.974999999999
-13948.92,-42010.064999999995,-7742.565,-22328.415,2407.86,-46284.975,2975.1749999999997,-7664.804999999999
-13884.615,-41927.805,-7683.344999999999,-22310.28,2359.395,-46475.82,2965.995,-7626.33
-13771.89,-41784.39,-7563.915,-22251.195,2276.055,-46632.915,2915.0099999999998,-7568.73
-13756.455,-41776.515,-7561.259999999999,-22257.18,2236.86,-46625.22,2900.52,-7550.1449999999995
-13831.47,-41874.975,-7641.585,-22292.055,2296.665,-46498.68,2923.1099999999997,-7584.299999999999
-13914.539999999999,-41975.909999999996,-7717.139999999999,-22321.754999999997,2365.4249999999997,-46457.009999999995,2950.65,-7637.8949999999995
-13928.715,-41995.755,-7730.37,-22326.254999999997,2390.13,-46446.479999999996,2978.2799999999997,-7646.535
-13929.39,-41994.135,-7731.45,-22333.995,2373.345,-46474.155,2985.21,-7655.219999999999
-13912.38,-41973.795,-7714.035,-22326.48,2364.48,-46492.155,2985.705,-7649.099999999999
-13878.539999999999,-41931.18,-7677.764999999999,-22303.62,2360.43,-46506.555,2970.72,-7630.0199999999995
-13850.955,-41893.29,-7648.335,-22295.114999999998,2325.69,-46555.02,2952.855,-7613.73
-13804.289999999999,-41828.265,-7598.16,-22281.614999999998,2257.38,-46642.95,2915.91,-7591.995
-13756.05,-41764.59,-7548.75,-22260.555,2211.12,-46700.235,2872.17,-7567.785
-13763.205,-41775.795,-7559.054999999999,-22265.145,2217.645,-46682.325,2850.255,-7575.165
-13801.814999999999,-41828.04,-7595.73,-22271.265,2275.83,-46617.479999999996,2862.1349999999998,-7593.84
-13858.92,-41902.02,-7650.674999999999,-22287.105,2345.4449999999997,-46529.82,2892.1949999999997,-7625.61
-13872.51,-41922.945,-7663.275,-22285.26,2392.02,-46455.479999999996,2911.095,-7633.349999999999
-13866.345,-41918.805,-7660.304999999999,-22286.475,2380.5899999999997,-46505.88,2918.745,-7627.905
-13874.535,-41931.314999999995,-7670.835,-22287.239999999998,2387.835,-46525.545,2927.97,-7628.58
-13898.07,-41954.85,-7697.25,-22319.82,2356.47,-46524.375,2928.33,-7647.929999999999
-13854.914999999999,-41897.115,-7651.665,-22300.11,2325.285,-46561.905,2899.17,-7630.065
-13797.9,-41821.515,-7592.58,-22278.645,2266.335,-46620.765,2863.2599999999998,-7599.87
-13723.154999999999,-41724.854999999996,-7516.3949999999995,-22252.635,2184.8849999999998,-46767.465,2824.92,-7562.969999999999
-13686.164999999999,-41686.695,-7481.429999999999,-22226.309999999998,2179.575,-46897.424999999996,2794.455,-7538.715
-13728.779999999999,-41751.18,-7527.6449999999995,-22237.379999999997,2228.085,-46900.215,2840.4449999999997,-7549.335
-13806.63,-41857.155,-7622.955,-22305.015,2261.6549999999997,-46802.115,2879.2349999999997,-7588.889999999999
-13854.644999999999,-41912.595,-7661.88,-22309.29,2276.64,-46666.979999999996,2870.955,-7621.83
-13986.09,-42059.924999999996,-7767.99,-22309.11,2494.71,-46206.54,2856.06,-7700.13
-13982.939999999999,-42044.625,-7758.9,-22313.34,2541.06,-46266.119999999995,2874.1949999999997,-7709.13
-13910.039999999999,-41935.814999999995,-7665.84,-22279.274999999998,2446.11,-46588.5,2892.96,-7697.745
-13780.755,-41769.63,-7522.0199999999995,-22209.84,2280.06,-46854.72,2765.0699999999997,-7643.115
-13726.755,-41752.305,-7541.82,-22276.215,2102.4449999999997,-46893.015,2790.72,-7550.6849999999995
-13804.109999999999,-41854.095,-7638.615,-22328.325,2188.665,-46556.145,2809.935,-7575.03
-13871.744999999999,-41919.119999999995,-7686.224999999999,-22333.77,2283.93,-46413.854999999996,2769.615,-7627.815
-13870.98,-41913.99,-7669.799999999999,-22303.98,2344.545,-46434.104999999996,2770.9649999999997,-7636.634999999999
-13900.455,-41957.189999999995,-7700.13,-22314.059999999998,2371.365,-46436.49,2807.0099999999998,-7657.29
-13926.555,-41984.415,-7715.745,-22314.645,2406.735,-46410.975,2830.455,-7680.105
-13918.68,-41973.795,-7705.755,-22307.04,2414.9249999999997,-46420.29,2842.1099999999997,-7677.63
-13912.83,-41961.6,-7698.15,-22314.329999999998,2377.305,-46470.015,2841.66,-7683.48
-13874.625,-41897.115,-7633.08,-22267.89,2389.545,-46540.979999999996,2816.145,-7684.469999999999
-13773.779999999999,-41794.965,-7563.509999999999,-22261.725,2285.73,-46803.78,2785.41,-7609.23
-13732.019999999999,-41760.854999999996,-7551.855,-22281.614999999998,2164.9049999999997,-46862.865,2802.7799999999997,-7554.915
-13768.109999999999,-41797.034999999996,-7586.955,-22301.46,2184.66,-46667.295,2770.56,-7574.49
-13766.715,-41789.115,-7572.15,-22284.54,2157.0299999999997,-46745.505,2738.97,-7580.745
-13847.13,-41890.905,-7648.92,-22297.41,2302.4249999999997,-46470.465,2737.98,-7623.99
-13891.455,-41948.369999999995,-7694.415,-22319.82,2345.58,-46466.505,2779.1549999999997,-7648.605
-13925.475,-41990.265,-7720.065,-22312.17,2417.895,-46419.39,2800.44,-7669.9349999999995
-13940.685,-42006.15,-7736.8949999999995,-22330.53,2414.745,-46444.905,2812.545,-7685.1449999999995
-13930.47,-41990.22,-7727.535,-22338.629999999997,2373.75,-46484.64,2811.87,-7682.849999999999
-13920.345,-41974.875,-7716.24,-22340.07,2342.52,-46533.015,2799.63,-7680.014999999999
-13890.24,-41937.075,-7685.46,-22326.39,2306.61,-46597.59,2780.73,-7663.455
-13861.08,-41894.955,-7658.1449999999995,-22330.71,2240.64,-46663.65,2748.06,-7652.295
-13791.869999999999,-41805.09,-7583.085,-22287.555,2208.015,-46706.22,2697.8849999999998,-7616.5199999999995
-13799.34,-41813.64,-7589.88,-22294.035,2198.835,-46722.104999999996,2673.855,-7622.594999999999
-13830.48,-41857.875,-7621.38,-22300.469999999998,2252.205,-46658.744999999995,2680.92,-7636.005
-13897.08,-41945.22,-7690.679999999999,-22334.535,2293.785,-46624.365,2722.725,-7673.49
-13940.775,-41998.049999999996,-7731.134999999999,-22354.92,2314.035,-46568.43,2764.125,-7700.174999999999
-13941.99,-41997.96,-7726.95,-22340.7,2360.565,-46505.295,2753.91,-7705.304999999999
-13941.045,-42000.165,-7730.37,-22340.43,2372.625,-46518.84,2741.31,-7706.745
-13921.74,-41978.07,-7716.69,-22341.195,2343.285,-46553.805,2745.495,-7693.65
