ch_0,ch_1,ch_2,ch_3,ch_4,ch_5,ch_6,ch_7
-307.84499999999997,-44325.765,-16055.91,-45206.549999999996,-18245.745,-40179.869999999995,-3674.97,4993.605
-34.65,-43440.435,-15651.539999999999,-45295.515,-18394.02,-40384.26,-4252.635,4956.21
-51.705,-42752.475,-15587.055,-45548.325,-18453.015,-40480.424999999996,-4258.08,4902.974999999999
-455.49,-43402.77,-16158.33,-45638.369999999995,-18234.989999999998,-40222.665,-3565.7549999999997,4943.5199999999995
-896.0849999999999,-44542.979999999996,-16784.055,-45466.515,-17889.255,-39822.21,-3218.895,4878.0
-728.145,-45002.115,-16522.47,-45139.409999999996,-17713.575,-39697.38,-3480.435,4857.21
-250.92,-44434.305,-15990.164999999999,-45077.31,-17940.375,-39992.04,-3836.0699999999997,4922.82
161.23499999999999,-43417.08,-15512.175,-45121.409999999996,-18283.094999999998,-40338.72,-4280.04,5043.78
421.245,-42944.625,-15151.005,-44952.975,-18232.92,-40186.08,-4750.785,5203.53
355.32,-42801.93,-15165.99,-45105.435,-18297.0,-40181.805,-4457.429999999999,5278.905
-36.18,-43125.659999999996,-15545.16,-45535.86,-18564.795,-40496.76,-3708.315,5230.26
-646.515,-43978.275,-16220.16,-45715.14,-18634.23,-40611.689999999995,-3027.915,5006.97
-1035.495,-44850.33,-16612.965,-45390.555,-18288.045,-40226.805,-3154.23,4804.695
-804.645,-44876.88,-16480.305,-45173.43,-18070.739999999998,-40084.064999999995,-3552.5699999999997,4769.235
-474.75,-44198.369999999995,-16158.555,-45346.275,-18255.329999999998,-40359.869999999995,-3705.345,4787.325
-535.365,-43614.54,-15978.689999999999,-45406.439999999995,-18242.1,-40486.77,-3680.595,4647.105
-915.615,-43573.14,-16058.789999999999,-45281.744999999995,-17770.995,-40111.38,-3681.54,4429.26
-1155.825,-43965.134999999995,-16235.595,-45203.265,-17391.735,-39649.049999999996,-3615.48,4401.9
-1007.73,-44605.395,-16502.085,-45138.645,-17384.445,-39456.27,-3417.705,4633.785
-549.54,-44626.005,-16479.585,-45130.185,-17897.13,-39730.095,-3613.095,4865.804999999999
-97.60499999999999,-44150.939999999995,-16116.57,-45194.715,-18489.645,-40300.83,-4016.97,5074.155
106.64999999999999,-43968.24,-15776.865,-45353.205,-18839.52,-40757.445,-4164.3,5174.054999999999
260.90999999999997,-43252.604999999996,-15551.775,-45520.11,-19090.844999999998,-41136.84,-4360.635,5132.385
78.795,-43114.994999999995,-15599.699999999999,-45497.655,-18873.54,-41069.475,-4464.495,5022.135
-313.695,-43434.314999999995,-15900.3,-45359.729999999996,-18240.344999999998,-40410.854999999996,-4250.565,4833.315
-684.135,-44026.11,-16330.59,-45355.185,-17927.28,-39984.479999999996,-3542.7149999999997,4762.845
-841.23,-44586.27,-16482.465,-45314.64,-17946.495,-40043.115,-3455.5049999999997,4769.1449999999995
-751.3199999999999,-44584.515,-16274.699999999999,-45210.96,-17998.649999999998,-40175.369999999995,-3739.095,4784.4
-475.83,-44211.96,-16136.955,-45253.665,-18063.405,-40205.115,-4016.9249999999997,4831.38
-339.79499999999996,-43598.025,-15898.769999999999,-45327.645,-18120.195,-40173.479999999996,-4245.21,4825.53
-342.495,-43470.72,-15759.99,-45369.045,-18107.864999999998,-40093.064999999995,-4278.96,4885.605
-335.565,-43854.479999999996,-15906.465,-45290.115,-17958.825,-39995.549999999996,-4031.145,4977.045
-381.87,-44111.52,-16094.385,-45260.28,-17992.71,-40081.5,-3749.1299999999997,4948.11
-481.04999999999995,-44077.814999999995,-16088.31,-45267.345,-18280.079999999998,-40245.93,-3626.8199999999997,4884.12
-423.315,-43874.189999999995,-16040.519999999999,-45349.83,-18660.195,-40403.7,-3767.1749999999997,4871.655
-266.49,-43690.14,-15934.545,-45467.82,-18854.37,-40668.93,-3928.41,4986.405
-291.645,-43742.744999999995,-15938.055,-45592.244999999995,-18950.895,-40971.555,-3960.495,5032.17
-367.38,-44031.869999999995,-15975.314999999999,-45406.665,-18548.64,-40861.755,-4121.505,4964.22
-467.59499999999997,-44165.25,-16117.605,-45211.77,-17969.76,-40400.865,-4123.26,4806.855
-586.62,-43917.165,-16151.984999999999,-45302.265,-17790.165,-40106.744999999995,-3839.67,4670.505
-771.0749999999999,-43930.439999999995,-16327.26,-45526.545,-17949.78,-40070.115,-3468.87,4590.495
-866.475,-43900.92,-16441.47,-45476.82,-17918.505,-40032.72,-3592.935,4501.62
-856.755,-43781.445,-16223.805,-45225.585,-17724.6,-39881.79,-3852.45,4461.3
-918.18,-44133.795,-16087.455,-44947.125,-17457.03,-39563.28,-3990.87,4512.96
-742.77,-44806.32,-16136.414999999999,-44894.655,-17508.96,-39474.72,-3998.205,4720.635
-407.88,-44751.375,-16048.215,-45132.75,-17947.844999999998,-39819.555,-4013.055,4888.304999999999
-73.89,-43832.79,-15805.305,-45357.615,-18261.675,-40210.875,-4207.95,4969.304999999999
150.885,-43097.22,-15617.295,-45461.205,-18533.34,-40642.38,-4294.17,5112.495
-106.065,-43457.22,-15940.664999999999,-45543.24,-18579.78,-40676.13,-3900.24,5098.139999999999
-583.0649999999999,-44040.509999999995,-16256.295,-45505.71,-18390.239999999998,-40444.83,-3717.495,4834.575
-753.345,-44114.265,-16214.535,-45302.13,-18048.329999999998,-40189.455,-3850.1549999999997,4677.705
-673.515,-44326.979999999996,-16259.76,-45207.36,-17886.6,-40089.195,-3832.605,4761.45
-529.6949999999999,-44341.47,-16219.08,-45312.39,-18090.63,-40241.52,-3807.18,4854.42
-530.91,-44086.185,-16131.555,-45389.52,-18243.09,-40413.869999999995,-3772.845,4862.385
-715.68,-44106.39,-16318.98,-45399.06,-18194.579999999998,-40311.045,-3775.0049999999997,4787.099999999999
-931.9499999999999,-44178.884999999995,-16407.45,-45334.034999999996,-18148.77,-40138.2,-3776.94,4677.345
-1034.9099999999999,-44158.814999999995,-16325.279999999999,-45306.63,-18041.265,-40010.58,-3760.515,4571.235
-1040.58,-44165.34,-16334.685,-45267.615,-17855.055,-39905.46,-3760.9649999999997,4472.82
-831.285,-44440.604999999996,-16389.63,-45177.119999999995,-17749.26,-39891.42,-3642.48,4603.635
-565.8299999999999,-44597.115,-16291.98,-45093.825,-17816.895,-39988.439999999995,-3731.535,4787.595
-196.82999999999998,-44037.09,-15987.105,-45122.265,-18164.295,-40194.135,-4169.925,4992.795
138.78,-43609.049999999996,-15749.955,-45236.159999999996,-18712.26,-40603.275,-4404.915,5254.0199999999995
166.76999999999998,-43442.145,-15740.01,-45456.03,-19089.045,-40993.29,-4321.845,5273.73
-90.0,-43336.439999999995,-15793.47,-45654.57,-19141.92,-41154.705,-4077.225,5084.505
-587.745,-43246.979999999996,-15872.445,-45756.494999999995,-18841.454999999998,-40964.805,-3872.43,4729.905
-1142.46,-43730.1,-16177.904999999999,-45530.865,-18007.605,-40196.34,-3708.9449999999997,4406.175
-1345.05,-44681.58,-16745.579999999998,-45270.9,-17428.725,-39523.68,-3516.795,4392.855
-1293.5249999999999,-45409.229999999996,-16947.765,-45061.695,-17254.26,-39316.95,-3468.285,4526.91
-803.3399999999999,-45149.13,-16563.78,-45022.229999999996,-17589.645,-39697.335,-3756.645,4736.745
-251.73,-44364.195,-16015.23,-45139.229999999996,-18174.239999999998,-40350.51,-4169.025,4932.36
-25.83,-43787.25,-15779.34,-45224.685,-18450.945,-40668.299999999996,-4480.92,5015.835
74.925,-43417.08,-15679.755,-45207.99,-18453.915,-40424.085,-4751.1449999999995,4971.554999999999
228.95999999999998,-43208.549999999996,-15572.744999999999,-45207.54,-18552.555,-40330.215,-4968.179999999999,5052.51
290.835,-43033.275,-15505.515,-45530.505,-18823.094999999998,-40605.57,-4681.08,5132.429999999999
56.385,-43157.88,-15680.564999999999,-45809.775,-18974.61,-40891.59,-3938.85,5149.53
-690.2099999999999,-43906.455,-16182.18,-45650.655,-18432.945,-40602.869999999995,-3375.72,4848.389999999999
-1055.385,-44478.63,-16392.465,-45145.935,-17681.22,-40086.854999999996,-3730.77,4567.5
-828.27,-44669.564999999995,-16303.859999999999,-44889.975,-17449.515,-39877.064999999995,-3993.705,4575.69
-522.9449999999999,-44068.005,-16042.59,-45101.34,-17753.805,-40006.395,-4159.575,4579.605
-480.555,-43781.58,-15923.519999999999,-45189.314999999995,-17944.155,-39966.84,-4257.2699999999995,4577.715
-393.03,-43743.195,-15986.744999999999,-45173.79,-17987.715,-39909.42,-4392.99,4699.9349999999995
-267.075,-43690.409999999996,-16121.835,-45221.265,-18073.575,-40142.025,-4227.705,4863.15
-400.5,-43838.549999999996,-16090.695,-45324.854999999996,-18287.325,-40450.994999999995,-3727.62,4841.054999999999
-720.36,-44251.335,-16303.5,-45304.74,-18131.625,-40223.79,-3650.7599999999998,4632.03
-797.04,-44731.08,-16368.885,-45156.15,-17857.98,-39869.01,-3882.69,4593.24
-525.645,-44559.54,-16221.644999999999,-45188.145,-18122.85,-39984.57,-4027.41,4699.9349999999995
-309.91499999999996,-43945.064999999995,-16037.46,-45232.155,-18318.239999999998,-40301.189999999995,-4162.635,4750.74
-328.14,-43687.619999999995,-15973.83,-45364.545,-18373.725,-40491.494999999995,-4090.5,4743.36
-552.285,-43814.564999999995,-16121.34,-45493.83,-18405.899999999998,-40582.26,-3753.54,4702.635
-915.525,-44129.295,-16356.42,-45394.155,-18072.09,-40257.45,-3574.665,4510.035
-1161.585,-44339.22,-16498.755,-45263.79,-17724.51,-39774.51,-3582.27,4374.0
-1094.58,-44567.415,-16531.605,-45164.43,-17698.14,-39726.225,-3602.475,4454.415
-899.73,-44893.439999999995,-16648.739999999998,-45161.685,-17892.45,-39851.549999999996,-3627.3599999999997,4620.0599999999995
-624.465,-44889.93,-16486.92,-45169.064999999995,-18158.04,-40035.195,-3887.19,4729.5
-255.14999999999998,-44033.715,-16035.164999999999,-45237.869999999995,-18499.184999999998,-40372.83,-4317.165,4844.5199999999995
-134.73,-43521.255,-15758.82,-45335.79,-18662.219999999998,-40644.405,-4450.679999999999,4892.4
-356.49,-43646.354999999996,-15866.595,-45424.08,-18614.43,-40708.08,-4167.99,4836.735
-662.4449999999999,-43944.435,-16104.555,-45361.755,-18245.565,-40411.08,-4048.92,4648.679999999999
-668.0699999999999,-44240.715,-16291.529999999999,-45179.82,-17876.745,-39962.43,-4046.265,4597.695
-542.6999999999999,-44403.119999999995,-16323.93,-45173.744999999995,-18081.27,-39970.485,-3993.48,4656.42
-400.72499999999997,-44089.335,-16183.305,-45367.83,-18705.375,-40444.064999999995,-3969.6299999999997,4743.855
-299.43,-43782.119999999995,-16075.305,-45515.25,-19035.989999999998,-40837.275,-4120.065,4817.745
-411.84,-43831.08,-16071.3,-45553.814999999995,-18900.09,-40947.57,-4153.005,4824.855
-687.9599999999999,-43991.865,-16186.365,-45408.869999999995,-18359.505,-40695.525,-4109.67,4674.87
-919.98,-44401.77,-16408.89,-45166.725,-17676.945,-40088.07,-3995.955,4511.295
-1043.865,-44782.155,-16466.805,-45002.52,-17418.735,-39728.385,-3808.7549999999997,4468.455
-1031.805,-44850.195,-16408.665,-44988.525,-17442.765,-39653.775,-3821.805,4462.83
-703.395,-44385.21,-16313.625,-45082.665,-17669.25,-39790.395,-3964.095,4563.405
-402.12,-43942.455,-16256.519999999999,-45205.74,-18017.64,-40064.49,-4104.99,4742.82
-301.545,-43918.335,-16207.47,-45304.064999999995,-18247.95,-40286.205,-4183.83,4836.42
-326.295,-43866.63,-16184.34,-45353.025,-18285.66,-40352.04,-4102.514999999999,4845.33
-482.03999999999996,-43914.825,-16140.105,-45333.18,-18213.03,-40284.225,-4046.7149999999997,4804.695
-542.115,-44086.95,-16121.654999999999,-45179.775,-18035.774999999998,-40180.725,-4158.09,4762.26
-509.76,-44346.33,-16149.869999999999,-45096.119999999995,-17980.785,-40071.555,-4254.345,4747.995
-431.59499999999997,-44147.25,-16019.369999999999,-45158.174999999996,-18065.34,-40092.255,-4380.93,4769.235
-280.97999999999996,-43564.095,-15871.41,-45355.229999999996,-18266.579999999998,-40211.28,-4415.175,4743.36
-390.825,-43200.674999999996,-15923.835,-45584.369999999995,-18447.39,-40308.345,-4043.115,4666.86
-857.655,-43616.924999999996,-16227.99,-45464.985,-18190.44,-40118.939999999995,-3711.645,4531.635
-1124.28,-44463.375,-16621.335,-45220.994999999995,-17878.77,-39880.935,-3588.8399999999997,4544.19
-984.78,-45377.055,-16842.285,-45075.195,-17799.614999999998,-39800.159999999996,-3517.83,4723.29
-589.05,-45056.79,-16535.7,-45124.875,-18247.454999999998,-40079.52,-3814.515,4823.91
-254.88,-44177.534999999996,-16184.88,-45299.564999999995,-18871.38,-40527.405,-4198.275,4915.215
-66.105,-43831.439999999995,-16079.984999999999,-45482.985,-19172.969999999998,-40884.479999999996,-4368.24,5030.46
-83.835,-43648.515,-16036.154999999999,-45703.53,-19271.43,-41204.115,-4308.615,5019.705
-342.04499999999996,-43677.72,-16129.439999999999,-45741.015,-18953.055,-41177.924999999996,-4155.525,4865.13
-762.39,-44173.305,-16318.664999999999,-45433.439999999995,-18077.13,-40506.255,-4173.885,4592.835
-997.245,-44838.81,-16525.485,-45128.97,-17368.425,-39777.57,-4097.79,4507.11
-908.37,-44777.295,-16655.399999999998,-45136.08,-17463.195,-39718.619999999995,-4013.2349999999997,4543.155
-688.8149999999999,-44428.545,-16660.665,-45142.965,-17698.005,-39852.09,-4108.365,4662.585
-470.07,-44207.82,-16321.095,-45004.5,-17802.54,-39915.494999999995,-4469.94,4734.72
-290.565,-44101.17,-15923.97,-44949.689999999995,-17974.485,-39993.885,-4660.83,4778.73
-159.255,-43854.795,-15857.595,-45164.025,-18398.475,-40224.465,-4517.55,4818.554999999999
-271.215,-43813.619999999995,-15967.17,-45418.365,-18715.274999999998,-40391.865,-4266.54,4799.474999999999
-229.36499999999998,-43611.255,-15897.779999999999,-45479.744999999995,-18787.545,-40587.84,-4384.665,4854.87
-216.72,-43489.619999999995,-15890.49,-45502.92,-18768.87,-40678.74,-4353.84,4883.535
-414.22499999999997,-43801.155,-16191.765,-45360.63,-18355.635,-40487.085,-4236.345,4802.13
-695.925,-44412.03,-16570.215,-45262.395,-17963.864999999998,-40175.549999999996,-4007.16,4678.335
-862.605,-44712.27,-16547.265,-45228.42,-18034.065,-40284.99,-3748.9049999999997,4650.389999999999
-982.8449999999999,-44777.25,-16548.434999999998,-45226.305,-18187.92,-40379.354999999996,-3674.16,4563.8099999999995
-1008.27,-44610.03,-16512.03,-45191.25,-18169.515,-40361.445,-3884.49,4491.495
-880.9649999999999,-44315.909999999996,-16404.12,-45267.39,-18237.375,-40398.615,-4076.865,4504.1849999999995
-902.295,-44142.795,-16364.835,-45396.585,-18451.215,-40431.465,-4113.0,4546.485
-909.63,-44254.35,-16464.78,-45463.95,-18546.165,-40391.28,-4094.37,4600.62
-868.005,-44610.75,-16582.77,-45454.365,-18544.995,-40334.67,-4031.865,4650.48
-774.495,-44592.795,-16469.415,-45444.689999999995,-18625.32,-40422.15,-4070.835,4612.95
-771.75,-44202.555,-16329.689999999999,-45398.7,-18541.575,-40511.07,-4316.8949999999995,4487.67
-753.255,-44003.025,-16275.24,-45373.275,-18363.87,-40440.42,-4527.72,4419.045
-808.0649999999999,-43984.89,-16326.9,-45386.28,-18228.285,-40289.939999999995,-4386.014999999999,4409.1449999999995
-974.0699999999999,-44281.08,-16490.88,-45350.369999999995,-18054.675,-40178.52,-4145.805,4407.48
-1020.555,-44564.67,-16698.825,-45341.415,-17967.195,-40174.02,-4063.14,4416.615
