ch_0,ch_1,ch_2,ch_3,ch_4,ch_5,ch_6,ch_7
-16804.62,-41414.174999999996,-11273.805,-28674.899999999998,-9995.805,-19688.175,-12577.005,5661.945
-16860.015,-41596.064999999995,-11313.675,-28657.89,-9942.705,-19640.385,-12579.39,5615.325
-16938.63,-41666.22,-11485.935,-28685.52,-9882.18,-19559.52,-12631.365,5427.179999999999
-17195.895,-41488.92,-11379.779999999999,-28644.3,-9800.19,-19456.11,-12741.48,5116.724999999999
-17491.635,-41473.17,-11254.635,-28581.795,-9715.77,-19370.88,-12730.365,5007.285
-17659.71,-41964.57,-11530.17,-28586.52,-9679.68,-19354.77,-12525.435,5285.655
-17398.934999999998,-42341.04,-11720.07,-28559.204999999998,-9755.414999999999,-19523.024999999998,-12399.525,5708.5199999999995
-16979.895,-42148.215,-11490.435,-28510.92,-9896.355,-19778.895,-12460.005,5912.054999999999
-16743.015,-41835.015,-11172.195,-28467.09,-9965.295,-19913.535,-12548.88,5925.96
-16733.97,-41653.439999999995,-11086.965,-28442.07,-9940.545,-19919.204999999998,-12576.779999999999,5870.07
-16772.399999999998,-41574.6,-11126.564999999999,-28447.785,-9909.99,-19891.17,-12573.539999999999,5820.974999999999
-16841.385,-41568.659999999996,-11218.32,-28522.664999999997,-9931.05,-19876.545,-12568.365,5765.535
-16867.035,-41453.729999999996,-11307.869999999999,-28626.48,-9963.315,-19845.315,-12598.38,5656.455
-16924.545,-41343.03,-11401.65,-28644.524999999998,-9922.77,-19759.59,-12612.105,5557.41
-17101.62,-41614.83,-11446.02,-28513.71,-9786.42,-19612.26,-12571.965,5507.01
-17134.605,-41756.22,-11338.515,-28393.469999999998,-9726.164999999999,-19590.434999999998,-12581.55,5522.04
-17020.665,-41732.595,-11204.505,-28340.28,-9754.83,-19675.8,-12607.875,5595.3
-16829.864999999998,-41551.47,-11148.84,-28332.719999999998,-9786.869999999999,-19739.114999999998,-12630.33,5664.33
-16879.68,-41598.225,-11191.68,-28376.504999999997,-9845.145,-19806.57,-12591.449999999999,5729.94
-16990.875,-41639.67,-11165.265,-28404.09,-9877.904999999999,-19847.204999999998,-12567.105,5758.83
-16942.815,-41764.32,-11240.73,-28413.899999999998,-9870.705,-19860.48,-12555.225,5808.24
-16912.44,-41679.18,-11241.27,-28426.77,-9844.425,-19857.329999999998,-12591.945,5748.4349999999995
-16926.075,-41416.784999999996,-11175.39,-28476.899999999998,-9870.93,-19888.38,-12648.914999999999,5611.005
-17077.364999999998,-41505.119999999995,-11286.494999999999,-28470.015,-9826.154999999999,-19851.3,-12629.789999999999,5523.21
-17210.835,-41774.49,-11487.869999999999,-28457.235,-9782.055,-19825.515,-12558.195,5562.179999999999
-17138.61,-41958.99,-11408.939999999999,-28372.41,-9748.08,-19849.454999999998,-12551.67,5657.264999999999
-17021.655,-41608.215,-11203.605,-28372.5,-9767.789999999999,-19902.69,-12621.779999999999,5636.115
-17192.52,-41503.275,-11258.1,-28466.504999999997,-9779.85,-19902.105,-12623.58,5545.26
-17192.52,-41503.275,-11258.1,-28466.504999999997,-9779.85,-19902.105,-12623.58,5545.26
-17192.52,-41503.275,-11258.1,-28466.504999999997,-9779.85,-19902.105,-12623.58,5545.26
-17192.52,-41503.275,-11258.1,-28466.504999999997,-9779.85,-19902.105,-12623.58,5545.26
-17192.52,-41503.275,-11258.1,-28466.504999999997,-9779.85,-19902.105,-12623.58,5545.26
-16949.204999999998,-41661.63,-11212.109999999999,-28274.399999999998,-9716.085,-20197.62,-12620.88,5751.2699999999995
-16913.565,-41559.93,-11240.055,-28331.82,-9755.369999999999,-20160.405,-12644.279999999999,5705.73
-17061.255,-41312.43,-11186.189999999999,-28314.629999999997,-9741.33,-20086.29,-12684.96,5549.445
-17317.305,-41385.51,-11280.645,-28312.515,-9698.67,-19979.37,-12654.539999999999,5469.12
-17278.695,-41887.439999999995,-11528.55,-28338.21,-9678.33,-19919.34,-12564.765,5611.86
-17050.364999999998,-42007.5,-11504.07,-28300.995,-9711.494999999999,-19953.405,-12626.055,5686.335
-16993.17,-41600.564999999995,-11272.77,-28276.065,-9803.115,-20046.195,-12742.38,5634.405
-17137.125,-41837.445,-11396.385,-28262.385,-9808.56,-20016.405,-12692.609999999999,5634.2699999999995
-17133.255,-41935.994999999995,-11521.98,-28285.829999999998,-9824.265,-19987.245,-12667.185,5630.625
-17191.079999999998,-41491.619999999995,-11490.074999999999,-28373.445,-9882.63,-19995.975,-12762.765,5452.605
-17472.285,-41712.795,-11789.369999999999,-28373.67,-9812.609999999999,-19882.35,-12724.244999999999,5358.735
-17613.09,-42490.53,-12019.41,-28253.114999999998,-9707.895,-19790.505,-12549.195,5566.455
-17233.065,-42318.81,-11430.63,-28030.32,-9724.455,-19929.645,-12642.615,5743.3949999999995
-16841.745,-41656.68,-11183.4,-28023.254999999997,-9838.305,-20104.605,-12727.17,5808.78
-16950.329999999998,-41506.965,-11248.02,-28089.719999999998,-9886.23,-20113.02,-12754.664999999999,5682.195
-17208.45,-41452.29,-11270.654999999999,-28070.594999999998,-9807.795,-20009.114999999998,-12867.029999999999,5412.96
-17201.79,-41414.445,-11298.33,-28048.68,-9701.685,-19881.765,-12927.42,5380.2
-17090.1,-41616.405,-11393.055,-28016.64,-9618.84,-19779.524999999998,-12823.605,5563.665
-17237.655,-41946.03,-11540.205,-28051.965,-9665.324999999999,-19771.92,-12675.779999999999,5724.585
-17118.045,-41974.965,-11563.47,-28169.954999999998,-9887.94,-19901.43,-12612.779999999999,5871.285
-16984.035,-41796.27,-11521.439999999999,-28240.785,-10040.49,-19939.32,-12636.135,5880.285
-16973.505,-41682.24,-11488.32,-28284.795,-10077.795,-19886.04,-12675.824999999999,5800.86
-16979.94,-41611.814999999995,-11520.314999999999,-28341.27,-10099.26,-19831.815,-12679.38,5763.15
-17089.155,-41790.96,-11558.52,-28246.32,-9990.945,-19693.844999999998,-12666.195,5718.51
-17265.149999999998,-41712.659999999996,-11462.67,-28182.69,-9958.994999999999,-19641.149999999998,-12715.605,5585.58
-17342.37,-41466.915,-11297.789999999999,-28141.289999999997,-9951.435,-19636.155,-12785.085,5483.88
-17239.454999999998,-41424.119999999995,-11357.189999999999,-28241.73,-10024.02,-19698.03,-12813.21,5524.83
-17159.265,-41348.115,-11425.68,-28380.329999999998,-10098.72,-19752.165,-12862.08,5557.905
-17399.565,-41733.72,-11705.445,-28421.414999999997,-10050.074999999999,-19686.735,-12777.074999999999,5633.639999999999
-17199.135,-42298.695,-12120.75,-28465.785,-10021.095,-19656.675,-12662.279999999999,5845.094999999999
-16991.01,-42087.24,-11810.52,-28391.895,-10051.965,-19745.28,-12741.75,5831.6849999999995
-17062.965,-41797.35,-11528.01,-28339.469999999998,-10027.529999999999,-19741.23,-12824.82,5729.13
-17002.755,-41597.369999999995,-11451.015,-28353.105,-10021.68,-19702.62,-12851.73,5728.32
-16815.015,-41843.97,-11483.189999999999,-28308.465,-9999.18,-19670.085,-12787.695,5885.28
-16950.96,-42161.085,-11427.93,-28206.18,-9942.39,-19645.695,-12759.255,5933.745
-17028.989999999998,-42178.994999999995,-11566.89,-28264.184999999998,-9993.51,-19695.69,-12779.055,5914.8
-17027.28,-41980.994999999995,-11580.75,-28321.469999999998,-10024.109999999999,-19699.065,-12812.715,5841.36
-17073.765,-42012.045,-11639.699999999999,-28344.239999999998,-9970.065,-19623.239999999998,-12806.144999999999,5794.0199999999995
-17098.785,-41945.174999999996,-11599.289999999999,-28326.825,-9922.815,-19605.329999999998,-12841.064999999999,5724.405
-17189.954999999998,-41759.82,-11502.135,-28305.315,-9876.555,-19598.715,-12888.585,5615.099999999999
-17430.03,-41595.57,-11465.01,-28293.704999999998,-9798.074999999999,-19511.55,-12950.46,5387.76
-17792.594999999998,-41480.64,-11410.064999999999,-28217.52,-9678.015,-19372.905,-13035.24,5120.37
-17961.614999999998,-41913.27,-11564.055,-28141.92,-9567.27,-19270.71,-12937.14,5276.745
-17264.7,-42397.83,-11680.965,-28224.675,-9675.09,-19389.825,-12841.875,5756.219999999999
-16702.649999999998,-42119.01,-11566.755,-28333.53,-9879.164999999999,-19641.285,-12905.144999999999,5987.655
-16894.53,-41949.18,-11634.435,-28468.079999999998,-9990.81,-19730.34,-12857.445,5957.099999999999
-17059.59,-41942.564999999995,-11782.08,-28545.93,-9976.635,-19664.325,-12855.465,5825.25
-17184.825,-42116.939999999995,-11914.47,-28504.215,-9862.38,-19530.585,-12848.445,5764.995
-17220.42,-42134.174999999996,-11820.555,-28423.079999999998,-9810.494999999999,-19509.3,-12872.115,5772.51
-17089.92,-41873.715,-11609.055,-28391.445,-9891.9,-19653.165,-12920.039999999999,5803.469999999999
-17039.97,-41554.125,-11453.58,-28358.864999999998,-9911.925,-19703.204999999998,-12999.914999999999,5691.105
-17392.32,-41576.49,-11405.97,-28287.45,-9830.34,-19629.135,-13021.38,5607.8099999999995
-17310.239999999998,-42057.27,-11622.465,-28317.555,-9788.4,-19569.015,-12949.109999999999,5765.445
-16963.29,-42142.005,-11661.074999999999,-28333.305,-9773.64,-19545.75,-12970.035,5765.085
-17040.69,-41903.865,-11559.869999999999,-28273.364999999998,-9685.305,-19454.445,-13075.605,5520.375
-17249.895,-41698.755,-11335.545,-28090.575,-9485.865,-19247.985,-13168.529999999999,5338.44
-17584.649999999998,-41578.155,-11207.97,-27999.585,-9390.734999999999,-19143.899999999998,-13135.05,5299.47
-17631.945,-41815.575,-11510.414999999999,-28173.195,-9488.925,-19206.899999999998,-12965.175,5559.525
-17281.215,-41969.7,-11843.369999999999,-28347.75,-9607.095,-19302.57,-12958.965,5723.235
-17284.5,-41720.58,-11624.175,-28217.879999999997,-9546.164999999999,-19250.91,-13123.755,5567.67
-17495.73,-41803.604999999996,-11381.535,-28051.289999999997,-9444.779999999999,-19152.27,-13055.039999999999,5701.23
-16787.114999999998,-42312.104999999996,-11676.734999999999,-28241.37,-9654.48,-19396.98,-12936.689999999999,6144.57
-16507.26,-42271.74,-11811.24,-28423.215,-9907.154999999999,-19695.645,-12959.595,6249.554999999999
-16689.51,-42011.64,-11744.55,-28463.039999999997,-9967.949999999999,-19780.965,-12986.189999999999,6132.285
-16881.66,-41908.005,-11650.814999999999,-28443.87,-9953.234999999999,-19779.344999999998,-13032.09,6014.429999999999
-17071.92,-42032.88,-11695.814999999999,-28458.18,-9945.63,-19749.645,-13042.394999999999,5929.695
-17203.274999999998,-42022.665,-11612.43,-28398.239999999998,-9873.09,-19659.375,-13072.59,5816.835
-17223.3,-41863.005,-11634.66,-28371.735,-9796.455,-19580.579999999998,-13107.24,5762.969999999999
-17221.68,-41723.415,-11561.039999999999,-28362.69,-9767.295,-19552.95,-13132.439999999999,5755.455
-17160.93,-41670.36,-11580.164999999999,-28412.235,-9761.175,-19551.78,-13165.74,5753.295
-17449.29,-41749.92,-11635.695,-28378.26,-9671.355,-19496.655,-13190.535,5660.01
-17707.5,-42164.865,-11939.22,-28406.114999999998,-9585.765,-19406.655,-13206.465,5501.385
-17717.265,-42016.905,-11619.9,-28294.065,-9461.205,-19304.684999999998,-13352.939999999999,5321.474999999999
-17557.829999999998,-42097.77,-11511.09,-28188.989999999998,-9322.289999999999,-19196.19,-13392.449999999999,5398.38
-17298.72,-42100.424999999996,-11657.52,-28285.2,-9390.51,-19278.0,-13319.955,5756.49
-16834.815,-42312.645,-12108.42,-28588.815,-9586.215,-19432.079999999998,-13205.925,6146.73
-16703.235,-42505.74,-12462.435,-28788.03,-9731.07,-19544.219999999998,-13238.595,6207.03
-16789.905,-42466.905,-12185.865,-28622.295,-9662.85,-19524.105,-13403.295,6046.29
-16917.03,-41956.83,-11594.564999999999,-28420.155,-9577.44,-19488.059999999998,-13497.21,5932.26
-16961.265,-41619.42,-11439.585,-28399.094999999998,-9548.01,-19468.26,-13537.845,5874.12
-17329.274999999998,-41351.67,-11452.23,-28370.295,-9420.93,-19319.219999999998,-13656.285,5483.205
-18044.325,-41102.82,-11327.805,-28062.719999999998,-8979.84,-18800.594999999998,-13910.805,4738.86
-18493.065,-41494.229999999996,-11119.635,-27666.629999999997,-8473.77,-18211.14,-13957.38,4478.804999999999
-18028.44,-41998.275,-11157.84,-27598.59,-8313.885,-18015.524999999998,-13887.314999999999,4792.139999999999
-17270.055,-42398.82,-11658.465,-27988.289999999997,-8653.185,-18334.665,-13692.914999999999,5541.795
-16733.34,-42226.92,-11712.824999999999,-28060.785,-8910.675,-18684.945,-13587.93,6034.95
-16462.44,-41954.04,-11831.085,-28301.219999999998,-9259.515,-19053.63,-13492.305,6362.865
-16477.875,-41805.9,-11669.22,-28458.629999999997,-9527.58,-19341.54,-13540.005,6450.84
-16562.88,-41950.08,-11782.8,-28634.219999999998,-9712.619999999999,-19509.48,-13601.115,6349.365
-16866.45,-42143.939999999995,-12040.695,-28728.629999999997,-9766.395,-19482.255,-13638.51,6099.075
-17248.59,-42084.945,-11998.755,-28657.215,-9720.63,-19326.735,-13704.705,5845.995
-17371.215,-41725.215,-11793.465,-28469.43,-9514.215,-19005.21,-13818.555,5608.3949999999995
-17328.059999999998,-41533.604999999996,-11516.895,-28213.425,-9262.619999999999,-18659.52,-13901.13,5550.03
-17240.489999999998,-41707.439999999995,-11480.58,-28051.02,-9141.705,-18471.465,-13872.24,5727.96
-17069.535,-41721.435,-11490.795,-27974.024999999998,-9117.09,-18419.445,-13900.814999999999,5815.304999999999
-17430.66,-41964.57,-11733.345,-28121.219999999998,-9244.08,-18487.575,-13919.715,5757.344999999999
-17279.055,-42235.515,-11909.115,-28241.864999999998,-9389.34,-18570.465,-13932.539999999999,5895.855
-16813.17,-42204.869999999995,-11737.845,-28199.52,-9528.795,-18726.614999999998,-14004.63,6067.17
-16698.825,-42126.345,-11719.08,-28283.219999999998,-9700.74,-18878.355,-14016.779999999999,6116.76
-16700.85,-41828.625,-11821.904999999999,-28423.305,-9824.535,-18918.495,-13974.119999999999,6136.245
-16870.95,-42002.46,-12146.67,-28591.155,-9916.425,-18890.505,-13876.244999999999,6174.8099999999995
-17021.655,-42276.24,-12050.64,-28566.045,-9952.74,-18860.445,-13881.33,6131.655
-17108.415,-41957.415,-11602.71,-28362.69,-9864.945,-18776.79,-14058.404999999999,5875.335
-17491.005,-41598.63,-11584.26,-28349.145,-9789.21,-18639.27,-14166.494999999999,5601.735
-17723.655,-41995.305,-12033.99,-28378.485,-9604.8,-18299.295,-14115.33,5487.03
-17575.875,-41973.299999999996,-11885.85,-28016.28,-9186.48,-17784.899999999998,-14199.705,5276.385
-17192.52,-41277.42,-10905.705,-27167.805,-8516.25,-17123.805,-14442.345,5073.929999999999
-16859.43,-41159.79,-10420.065,-26684.64,-8133.165,-16694.055,-14317.92,5438.07
-16690.32,-41407.38,-10617.615,-27090.09,-8655.119999999999,-17172.63,-14150.789999999999,5983.245
-16501.23,-41830.424999999996,-11353.725,-28035.0,-9679.365,-18188.55,-14098.14,6304.545
-16557.345,-42406.47,-12159.81,-28769.67,-10353.96,-18808.829999999998,-14065.785,6326.639999999999
-16965.09,-42317.505,-12152.97,-28825.695,-10422.404999999999,-18806.625,-14167.394999999999,6090.48
-17228.79,-42382.305,-12268.484999999999,-28823.489999999998,-10377.855,-18644.219999999998,-14096.43,6024.96
-17344.934999999998,-42647.13,-12374.64,-28871.055,-10452.6,-18631.35,-13984.83,6095.835
-17444.88,-42370.92,-11956.32,-28723.454999999998,-10426.904999999999,-18596.295,-14086.394999999999,5950.9349999999995
-17538.48,-41939.235,-11637.18,-28407.78,-10101.015,-18198.719999999998,-14226.21,5590.3949999999995
-17690.76,-42221.385,-11765.564999999999,-28106.235,-9624.465,-17553.645,-14144.984999999999,5464.304999999999
-17331.03,-42645.6,-11826.359999999999,-28034.145,-9457.92,-17262.72,-14050.574999999999,5678.46
