ch_0,ch_1,ch_2,ch_3,ch_4,ch_5,ch_6,ch_7
15259.814999999999,-17745.39,-1649.8799999999999,5831.82,-23740.335,-30740.579999999998,11553.795,-32227.155
15282.539999999999,-17721.54,-1644.3899999999999,5823.585,-23749.92,-30739.995,11564.46,-32215.05
15266.88,-17757.0,-1677.6899999999998,5791.455,-23766.344999999998,-30733.785,11582.73,-32202.045
15266.789999999999,-17789.355,-1696.455,5780.385,-23771.79,-30723.84,11598.66,-32192.91
15266.07,-17802.27,-1701.405,5786.594999999999,-23757.93,-30713.805,11597.085,-32202.405
15269.67,-17789.895,-1687.365,5797.485,-23746.995,-30711.69,11587.185,-32209.289999999997
15303.734999999999,-17763.434999999998,-1669.95,5808.465,-23734.305,-30711.239999999998,11580.345,-32187.824999999997
15324.435,-17748.989999999998,-1656.945,5812.29,-23729.625,-30711.42,11586.06,-32168.699999999997
15312.195,-17756.055,-1655.595,5818.86,-23722.829999999998,-30711.87,11584.89,-32169.329999999998
15296.894999999999,-17764.2,-1656.09,5816.969999999999,-23727.69,-30708.18,11591.91,-32171.175
15270.164999999999,-17807.715,-1686.0149999999999,5787.135,-23754.42,-30709.844999999998,11600.955,-32175.719999999998
15237.359999999999,-17856.855,-1725.7949999999998,5746.635,-23785.02,-30719.655,11600.369999999999,-32184.27
15238.619999999999,-17870.895,-1733.58,5738.085,-23788.89,-30712.004999999997,11606.445,-32184.989999999998
15244.605,-17874.27,-1734.3899999999999,5737.635,-23788.305,-30719.52,11605.545,-32180.355
15215.984999999999,-17873.235,-1737.0449999999998,5733.36,-23789.52,-30730.545,11598.66,-32190.3
15221.925,-17846.46,-1714.905,5756.264999999999,-23770.44,-30736.754999999997,11580.119999999999,-32203.17
15272.01,-17784.045,-1668.105,5788.035,-23743.215,-30731.445,11576.205,-32189.129999999997
15274.935,-17765.864999999998,-1655.82,5782.95,-23747.04,-30736.125,11579.49,-32183.055
15265.935,-17761.545,-1652.8049999999998,5779.035,-23753.16,-30735.315,11581.56,-32187.285
15267.779999999999,-17761.95,-1648.3049999999998,5785.38,-23744.07,-30737.25,11575.755,-32190.12
15290.279999999999,-17748.315,-1635.345,5796.045,-23729.129999999997,-30733.965,11577.779999999999,-32176.844999999998
15298.785,-17754.03,-1639.71,5795.28,-23726.925,-30720.824999999997,11590.515,-32161.77
15281.55,-17779.545,-1664.1,5777.235,-23737.5,-30714.164999999997,11596.41,-32161.14
15243.795,-17816.219999999998,-1690.0649999999998,5753.115,-23756.399999999998,-30703.77,11613.15,-32158.62
15175.08,-17887.32,-1745.28,5697.63,-23797.079999999998,-30706.829999999998,11622.96,-32168.43
15127.47,-17942.04,-1787.715,5657.13,-23819.579999999998,-30708.809999999998,11620.529999999999,-32186.745
15110.055,-17977.59,-1813.365,5634.675,-23831.28,-30710.43,11616.705,-32204.43
15083.595,-18008.774999999998,-1833.975,5615.594999999999,-23850.405,-30730.815,11605.005,-32230.305
15094.394999999999,-17999.55,-1822.8149999999998,5632.695,-23836.454999999998,-30731.445,11597.805,-32236.739999999998
15073.289999999999,-17991.719999999998,-1813.1399999999999,5648.445,-23819.219999999998,-30728.34,11588.445,-32237.145
15063.705,-17979.165,-1797.48,5645.07,-23824.98,-30720.87,11595.96,-32226.93
15073.695,-17969.625,-1782.855,5649.929999999999,-23826.51,-30724.605,11592.359999999999,-32232.645
15152.49,-17920.8,-1733.085,5703.795,-23783.309999999998,-30719.699999999997,11582.82,-32225.399999999998
15261.029999999999,-17829.675,-1674.855,5755.7699999999995,-23740.155,-30718.35,11566.8,-32200.469999999998
15345.585,-17746.92,-1624.455,5797.62,-23706.045,-30711.42,11569.005,-32153.129999999997
15358.859999999999,-17701.875,-1583.325,5830.5599999999995,-23692.59,-30717.539999999997,11572.109999999999,-32129.91
15335.595,-17702.055,-1582.875,5818.41,-23704.739999999998,-30707.504999999997,11587.545,-32131.079999999998
15296.535,-17770.184999999998,-1641.0149999999999,5761.71,-23739.93,-30687.614999999998,11608.56,-32135.129999999997
15271.605,-17819.505,-1681.47,5722.695,-23755.454999999998,-30678.84,11615.939999999999,-32145.614999999998
15281.46,-17816.265,-1671.345,5725.485,-23751.989999999998,-30687.254999999997,11606.67,-32155.065
15260.805,-17812.079999999998,-1657.215,5747.04,-23735.969999999998,-30693.69,11595.645,-32167.574999999997
15223.724999999999,-17802.09,-1633.2749999999999,5777.37,-23707.079999999998,-30685.59,11596.994999999999,-32185.079999999998
15235.965,-17751.87,-1571.04,5831.28,-23673.465,-30684.645,11587.994999999999,-32182.92
15292.08,-17708.175,-1530.72,5860.17,-23652.719999999998,-30676.59,11593.035,-32153.67
15320.385,-17712.27,-1555.155,5835.0599999999995,-23666.715,-30665.745,11600.01,-32137.065
15292.619999999999,-17755.245,-1599.84,5794.0199999999995,-23695.92,-30654.405,11611.035,-32147.504999999997
15279.029999999999,-17786.969999999998,-1635.975,5760.8099999999995,-23721.84,-30649.995,11613.779999999999,-32168.475
15269.58,-17800.695,-1643.22,5757.21,-23721.434999999998,-30643.559999999998,11611.125,-32177.204999999998
15212.43,-17825.04,-1646.28,5753.295,-23725.215,-30646.35,11610.81,-32192.145
15154.785,-17874.495,-1671.7949999999998,5728.635,-23743.8,-30657.555,11615.76,-32202.135
15145.154999999999,-17866.71,-1667.7,5731.0199999999995,-23739.344999999998,-30665.024999999998,11610.18,-32212.26
15185.025,-17839.934999999998,-1647.405,5746.635,-23719.545,-30663.09,11603.115,-32212.305
15247.484999999999,-17800.785,-1620.99,5767.92,-23704.245,-30667.68,11600.955,-32185.125
15331.545,-17738.37,-1582.9199999999998,5791.005,-23691.105,-30676.59,11584.619999999999,-32171.445
15411.24,-17650.305,-1524.195,5829.57,-23661.675,-30663.989999999998,11587.32,-32143.32
15424.109999999999,-17630.954999999998,-1515.24,5825.07,-23660.145,-30663.855,11585.16,-32136.57
15465.734999999999,-17592.21,-1484.145,5856.974999999999,-23632.245,-30660.434999999998,11586.06,-32119.605
15456.06,-17596.17,-1481.985,5868.224999999999,-23626.575,-30667.274999999998,11589.029999999999,-32121.135
15410.34,-17648.01,-1526.58,5826.78,-23650.2,-30657.375,11599.244999999999,-32134.004999999997
15377.58,-17684.91,-1548.54,5808.78,-23663.16,-30652.469999999998,11606.31,-32140.35
15355.125,-17705.43,-1560.0149999999999,5800.905,-23672.07,-30653.37,11610.0,-32143.32
15333.345,-17703.09,-1558.3049999999998,5796.8099999999995,-23674.815,-30653.37,11614.59,-32147.145
15313.23,-17709.434999999998,-1564.29,5783.804999999999,-23693.67,-30664.395,11613.914999999999,-32151.105
15303.015,-17751.015,-1600.245,5760.764999999999,-23704.515,-30663.225,11615.67,-32148.765
15294.779999999999,-17767.35,-1619.1899999999998,5747.445,-23707.395,-30651.84,11626.515,-32149.98
15268.545,-17770.094999999998,-1619.325,5736.375,-23719.364999999998,-30654.045,11617.605,-32171.489999999998
15293.88,-17746.649999999998,-1579.23,5766.885,-23696.145,-30641.445,11611.395,-32164.92
15308.55,-17741.88,-1557.45,5784.885,-23686.92,-30644.28,11611.439999999999,-32158.35
15305.4,-17731.53,-1546.7849999999999,5798.565,-23681.879999999997,-30650.895,11610.045,-32164.739999999998
15306.119999999999,-17716.725,-1542.78,5807.385,-23679.045,-30659.67,11605.365,-32173.199999999997
15326.46,-17706.78,-1552.23,5793.525,-23684.489999999998,-30657.69,11607.48,-32169.69
15351.66,-17674.2,-1531.44,5800.139999999999,-23684.04,-30662.954999999998,11601.585,-32169.149999999998
15363.539999999999,-17666.954999999998,-1534.86,5789.565,-23684.94,-30660.48,11606.22,-32158.035
15376.545,-17655.84,-1533.915,5787.36,-23681.07,-30650.309999999998,11609.955,-32146.289999999997
15371.279999999999,-17654.22,-1522.62,5796.63,-23679.315,-30654.27,11614.23,-32132.879999999997
15330.51,-17698.364999999998,-1551.24,5773.679999999999,-23695.469999999998,-30656.25,11620.395,-32147.46
15270.705,-17755.829999999998,-1581.345,5752.17,-23704.829999999998,-30649.725,11628.539999999999,-32174.055
15280.154999999999,-17751.915,-1571.715,5751.405,-23713.02,-30662.504999999997,11613.645,-32182.875
15307.65,-17750.655,-1573.29,5741.594999999999,-23725.934999999998,-30662.64,11609.82,-32182.289999999997
15311.385,-17757.63,-1572.9299999999998,5750.01,-23712.39,-30652.469999999998,11606.76,-32181.75
15378.029999999999,-17707.23,-1541.07,5786.91,-23683.905,-30654.315,11598.345,-32159.969999999998
15395.76,-17667.63,-1516.2749999999999,5810.13,-23664.015,-30660.48,11596.005,-32147.954999999998
15366.375,-17666.64,-1513.44,5802.66,-23668.155,-30665.52,11599.38,-32157.135
15371.91,-17645.085,-1488.96,5803.0199999999995,-23669.73,-30661.829999999998,11592.585,-32151.6
15394.41,-17631.72,-1474.3799999999999,5800.905,-23668.739999999998,-30651.704999999998,11603.385,-32139.495
15413.894999999999,-17620.29,-1466.1,5801.13,-23677.245,-30670.605,11597.355,-32146.155
15451.56,-17592.21,-1446.2549999999999,5817.96,-23666.129999999997,-30680.19,11583.72,-32148.18
15496.109999999999,-17557.649999999998,-1409.445,5857.155,-23630.04,-30665.789999999997,11581.47,-32137.11
15466.814999999999,-17572.23,-1414.125,5855.58,-23628.69,-30653.684999999998,11600.01,-32128.469999999998
15404.805,-17637.614999999998,-1461.87,5811.525,-23653.62,-30643.335,11615.31,-32138.954999999998
15353.01,-17684.864999999998,-1498.1399999999999,5773.7699999999995,-23681.43,-30640.905,11621.744999999999,-32150.385
15308.595,-17721.135,-1528.605,5743.215,-23701.815,-30644.55,11620.26,-32164.469999999998
15315.48,-17720.145,-1521.6299999999999,5746.275,-23698.934999999998,-30646.215,11616.39,-32168.699999999997
15389.369999999999,-17668.755,-1482.3,5781.375,-23671.26,-30640.184999999998,11611.529999999999,-32149.26
15457.365,-17606.925,-1440.405,5814.855,-23652.09,-30646.98,11604.689999999999,-32134.59
15467.22,-17579.385,-1426.905,5819.264999999999,-23656.14,-30654.989999999998,11603.925,-32132.699999999997
15461.955,-17578.485,-1425.87,5826.0599999999995,-23649.704999999998,-30648.329999999998,11607.48,-32132.745
15448.904999999999,-17587.079999999998,-1426.995,5832.855,-23650.245,-30650.535,11609.82,-32138.774999999998
15397.425,-17651.88,-1483.965,5789.16,-23679.27,-30649.454999999998,11621.88,-32152.454999999998
15299.01,-17776.71,-1576.7549999999999,5696.955,-23737.14,-30628.934999999998,11647.395,-32171.715
15210.359999999999,-17865.765,-1634.445,5644.035,-23769.719999999998,-30620.925,11653.92,-32199.39
15193.529999999999,-17856.585,-1623.1499999999999,5651.639999999999,-23757.3,-30636.405,11636.955,-32211.945
15235.965,-17770.815,-1546.155,5712.03,-23715.989999999998,-30664.664999999997,11610.404999999999,-32219.774999999998
15379.785,-17617.905,-1430.37,5815.17,-23645.61,-30696.93,11564.145,-32203.215
15565.455,-17459.235,-1313.55,5910.344999999999,-23589.09,-30690.495,11552.31,-32140.62
15615.18,-17432.055,-1309.725,5906.745,-23591.204999999998,-30669.704999999998,11568.96,-32111.82
15562.26,-17491.14,-1354.77,5869.62,-23603.805,-30643.92,11600.414999999999,-32104.485
15508.529999999999,-17555.67,-1391.2649999999999,5847.795,-23621.355,-30630.105,11613.06,-32119.065
15448.769999999999,-17614.17,-1431.855,5813.73,-23648.94,-30627.225,11618.595,-32137.515
15414.435,-17652.015,-1454.895,5785.695,-23669.325,-30627.135,11623.545,-32151.465
15363.72,-17689.23,-1472.58,5770.304999999999,-23678.19,-30632.805,11629.71,-32165.19
15329.835,-17734.32,-1489.1399999999999,5762.88,-23677.92,-30638.204999999998,11630.115,-32176.26
15361.785,-17743.545,-1489.6799999999998,5759.639999999999,-23676.03,-30632.445,11633.039999999999,-32164.649999999998
15393.195,-17730.405,-1485.7649999999999,5753.565,-23673.69,-30631.004999999997,11630.744999999999,-32157.225
15479.324999999999,-17645.805,-1437.075,5780.79,-23655.42,-30626.684999999998,11618.46,-32141.475
15490.529999999999,-17575.605,-1395.72,5800.905,-23662.17,-30644.774999999998,11609.775,-32137.379999999997
15474.285,-17559.989999999998,-1382.1299999999999,5809.139999999999,-23663.969999999998,-30643.739999999998,11615.58,-32144.309999999998
15499.17,-17548.965,-1377.09,5816.88,-23651.64,-30637.17,11623.77,-32139.449999999997
15531.119999999999,-17521.739999999998,-1353.33,5848.65,-23616.18,-30628.8,11615.039999999999,-32142.329999999998
15560.01,-17510.489999999998,-1342.71,5866.245,-23591.565,-30616.289999999997,11610.404999999999,-32134.32
15532.109999999999,-17534.52,-1355.2649999999999,5848.514999999999,-23599.44,-30615.75,11622.734999999999,-32124.96
15496.38,-17590.23,-1402.5149999999999,5804.01,-23620.995,-30610.305,11635.109999999999,-32124.78
15461.01,-17661.78,-1449.855,5762.429999999999,-23648.805,-30602.114999999998,11647.755,-32132.07
15430.859999999999,-17707.274999999998,-1471.59,5744.385,-23661.809999999998,-30604.905,11650.635,-32145.164999999997
15384.42,-17733.645,-1477.53,5747.355,-23663.79,-30612.465,11652.705,-32157.225
15327.045,-17744.715,-1492.425,5727.285,-23688.18,-30634.155,11644.425,-32182.379999999997
15366.96,-17690.265,-1450.71,5762.16,-23650.469999999998,-30627.045,11628.27,-32185.35
15469.83,-17578.395,-1377.27,5824.844999999999,-23599.89,-30625.695,11611.935,-32164.739999999998
15574.994999999999,-17470.35,-1308.78,5876.28,-23569.515,-30632.399999999998,11597.805,-32124.69
15572.925,-17476.965,-1311.57,5855.804999999999,-23589.135,-30626.64,11613.555,-32115.239999999998
15534.045,-17535.239999999998,-1341.585,5824.755,-23600.79,-30608.82,11630.744999999999,-32130.405
15549.435,-17558.055,-1348.605,5819.13,-23604.93,-30609.719999999998,11633.85,-32127.795
15574.41,-17532.63,-1331.82,5827.7699999999995,-23604.75,-30621.42,11625.029999999999,-32116.364999999998
15552.855,-17511.614999999998,-1310.445,5842.755,-23599.035,-30626.324999999997,11627.73,-32117.175
15590.88,-17461.305,-1275.93,5878.755,-23572.305,-30625.065,11627.82,-32111.774999999998
15628.005,-17428.725,-1250.415,5902.38,-23561.325,-30627.495,11621.115,-32113.305
15624.855,-17457.12,-1270.7549999999999,5879.79,-23580.36,-30616.605,11636.279999999999,-32103.18
15572.07,-17519.579999999998,-1304.685,5856.57,-23596.739999999998,-30607.469999999998,11652.885,-32110.649999999998
15542.055,-17562.78,-1325.97,5844.0599999999995,-23598.18,-30595.725,11664.404999999999,-32115.239999999998
15532.74,-17585.415,-1341.99,5828.49,-23598.809999999998,-30593.43,11664.314999999999,-32121.675
15522.795,-17598.735,-1341.7649999999999,5829.885,-23596.245,-30598.245,11661.345,-32133.555
15485.67,-17609.895,-1341.585,5816.88,-23619.555,-30609.765,11657.97,-32148.36
15420.914999999999,-17646.48,-1363.0049999999999,5802.344999999999,-23627.7,-30601.395,11670.66,-32160.78
15441.48,-17638.515,-1365.075,5797.98,-23616.495,-30588.614999999998,11674.845,-32154.93
15519.96,-17589.78,-1342.485,5808.78,-23607.045,-30595.77,11667.51,-32132.745
15649.109999999999,-17491.815,-1287.8999999999999,5845.679999999999,-23575.094999999998,-30602.475,11643.795,-32097.87
15691.455,-17430.524999999998,-1247.1299999999999,5866.245,-23560.829999999998,-30604.86,11638.935,-32076.629999999997
15675.3,-17414.505,-1230.7949999999998,5867.19,-23559.3,-30594.059999999998,11652.705,-32078.204999999998
15653.97,-17431.515,-1233.0449999999998,5870.205,-23559.075,-30586.364999999998,11659.23,-32087.969999999998
15628.23,-17466.39,-1249.74,5866.245,-23562.54,-30585.375,11657.88,-32101.469999999998
