ch_0,ch_1,ch_2,ch_3,ch_4,ch_5,ch_6,ch_7
203.57999999999998,-31466.699999999997,34560.854999999996,42250.095,27775.844999999998,3145.0499999999997,-17255.295,18444.825
165.69,-31571.235,34519.545,42243.93,27781.245,3161.475,-17241.075,18452.565
161.64,-31559.489999999998,34439.04,42322.095,27804.69,3164.625,-17244.989999999998,18441.63
191.16,-31539.914999999997,34462.619999999995,42386.58,27829.305,3174.345,-17253.045,18439.469999999998
251.14499999999998,-31424.895,34574.22,42399.27,27845.594999999998,3175.515,-17260.065,18445.23
267.03,-31380.12,34716.555,42425.189999999995,27847.035,3160.08,-17275.77,18442.665
187.01999999999998,-31504.545,34714.485,42383.385,27841.41,3172.725,-17258.085,18441.54
95.895,-31652.64,34652.7,42334.784999999996,27833.085,3177.81,-17246.655,18438.75
104.71499999999999,-31709.745,34471.034999999996,42317.64,27838.53,3194.955,-17233.695,18444.105
189.54,-31599.675,34334.28,42329.52,27842.985,3198.285,-17229.6,18441.36
316.08,-31325.625,34503.21,42383.655,27829.17,3164.58,-17263.35,18433.71
426.24,-31122.495,34719.255,42369.075,27811.844999999998,3123.54,-17311.005,18449.55
419.35499999999996,-31217.039999999997,34724.7,42347.835,27821.655,3127.8599999999997,-17312.895,18456.885
364.40999999999997,-31356.0,34655.265,42367.905,27854.01,3162.33,-17282.204999999998,18463.32
324.945,-31409.37,34627.86,42401.43,27871.785,3183.0299999999997,-17263.215,18464.985
265.32,-31403.34,34653.104999999996,42373.575,27854.19,3172.455,-17259.614999999998,18459.63
227.07,-31411.574999999997,34672.815,42315.345,27823.184999999998,3161.9249999999997,-17266.59,18450.18
238.85999999999999,-31420.844999999998,34599.06,42293.835,27836.594999999998,3190.77,-17252.73,18450.675
285.12,-31443.39,34570.575,42359.534999999996,27884.52,3215.79,-17245.44,18452.385
353.655,-31410.27,34618.77,42416.955,27902.565,3190.005,-17271.045,18459.135
380.29499999999996,-31336.155,34727.04,42453.72,27892.395,3171.555,-17290.44,18458.37
388.935,-31297.77,34715.655,42465.104999999996,27876.105,3171.7349999999997,-17284.184999999998,18465.03
401.31,-31299.164999999997,34626.15,42389.145,27873.495,3178.755,-17270.864999999998,18479.745
391.455,-31315.184999999998,34585.47,42393.284999999996,27888.075,3186.1349999999998,-17272.755,18475.29
382.635,-31358.43,34558.74,42427.125,27893.655,3191.535,-17269.11,18477.36
366.97499999999997,-31383.495,34631.64,42433.83,27900.225,3192.705,-17273.114999999998,18471.059999999998
345.87,-31411.395,34666.83,42444.99,27902.295,3196.035,-17272.62,18465.3
333.0,-31434.524999999998,34580.655,42410.655,27892.485,3201.615,-17264.024999999998,18466.335
321.885,-31452.39,34579.125,42400.755,27885.059999999998,3198.7799999999997,-17259.39,18463.23
311.67,-31458.824999999997,34636.635,42410.835,27881.01,3197.835,-17258.625,18459.809999999998
301.005,-31413.329999999998,34732.53,42441.435,27881.504999999997,3206.475,-17257.364999999998,18457.92
282.78,-31471.199999999997,34731.045,42404.22,27873.675,3219.2549999999997,-17243.954999999998,18464.085
279.63,-31584.87,34623.135,42332.985,27866.295,3232.395,-17225.19,18476.37
301.995,-31610.204999999998,34454.43,42350.085,27864.765,3230.415,-17220.015,18482.445
351.04499999999996,-31555.125,34417.125,42380.369999999995,27883.53,3224.205,-17223.21,18490.905
371.88,-31478.579999999998,34521.795,42416.369999999995,27912.059999999998,3204.18,-17261.145,18469.485
347.625,-31440.78,34606.08,42444.135,27923.895,3205.845,-17269.02,18461.024999999998
323.90999999999997,-31450.86,34688.025,42458.534999999996,27908.594999999998,3198.69,-17268.795,18456.66
322.83,-31492.35,34650.945,42463.305,27882.045,3196.08,-17266.23,18457.559999999998
361.84499999999997,-31532.355,34523.595,42410.115,27858.329999999998,3206.97,-17253.09,18475.11
389.565,-31563.0,34474.994999999995,42310.395,27847.71,3211.515,-17258.67,18474.344999999998
374.21999999999997,-31489.965,34457.445,42307.65,27872.504999999997,3217.8599999999997,-17271.495,18453.239999999998
383.445,-31361.489999999998,34508.97,42320.924999999996,27898.155,3223.7999999999997,-17275.815,18446.445
426.91499999999996,-31251.78,34639.56,42416.235,27928.62,3233.835,-17270.864999999998,18462.329999999998
432.04499999999996,-31269.555,34700.174999999996,42516.585,27940.725,3230.955,-17272.035,18467.28
387.81,-31406.895,34669.395,42471.585,27921.285,3231.1349999999998,-17270.145,18463.635
331.2,-31528.574999999997,34614.135,42438.42,27905.76,3242.25,-17254.079999999998,18465.344999999998
316.84499999999997,-31567.23,34546.049999999996,42421.32,27906.66,3253.095,-17250.524999999998,18464.355
332.37,-31527.315,34527.51,42436.034999999996,27910.664999999997,3256.3799999999997,-17256.825,18457.785
359.64,-31471.065,34613.28,42421.185,27913.815,3244.455,-17268.975,18456.93
350.19,-31502.879999999997,34750.619999999995,42398.955,27888.03,3214.62,-17285.175,18463.454999999998
307.305,-31581.405,34711.47,42411.104999999996,27869.67,3214.035,-17278.065,18466.335
279.85499999999996,-31668.48,34529.265,42366.869999999995,27876.195,3236.22,-17259.704999999998,18458.01
304.515,-31639.545,34299.99,42339.555,27885.87,3246.5699999999997,-17236.215,18468.27
388.84499999999997,-31490.145,34420.005,42417.405,27887.129999999997,3220.6949999999997,-17254.26,18478.35
454.40999999999997,-31404.555,34614.27,42461.775,27897.21,3202.6949999999997,-17291.204999999998,18473.895
431.82,-31435.515,34597.53,42432.21,27892.754999999997,3212.5049999999997,-17284.14,18468.899999999998
421.46999999999997,-31390.469999999998,34574.805,42452.145,27891.765,3218.22,-17279.64,18459.045
437.175,-31333.725,34669.71,42481.17,27911.61,3226.095,-17287.965,18460.125
447.65999999999997,-31385.114999999998,34713.405,42435.81,27895.41,3204.3599999999997,-17298.585,18469.44
394.515,-31596.12,34574.985,42420.78,27858.96,3204.315,-17280.09,18485.684999999998
326.115,-31781.969999999998,34454.79,42394.635,27843.164999999997,3226.6349999999998,-17251.29,18490.32
308.96999999999997,-31760.504999999997,34256.25,42351.21,27852.12,3240.495,-17243.145,18474.795
390.51,-31589.055,34333.695,42359.58,27881.055,3232.4849999999997,-17259.03,18475.649999999998
470.07,-31431.42,34570.845,42431.22,27893.295,3202.245,-17293.815,18476.594999999998
450.585,-31442.76,34687.53,42465.689999999995,27876.78,3176.145,-17323.92,18462.825
396.0,-31503.329999999998,34689.06,42401.655,27844.515,3176.0099999999998,-17323.605,18445.77
418.68,-31466.204999999998,34538.4,42316.784999999996,27848.43,3208.9049999999997,-17290.71,18465.48
515.5649999999999,-31311.225,34490.159999999996,42350.985,27863.954999999998,3210.345,-17295.57,18489.735
563.13,-31253.399999999998,34559.01,42485.67,27904.094999999998,3214.4849999999997,-17316.18,18490.995
528.255,-31289.309999999998,34631.46,42529.005,27937.26,3233.8799999999997,-17317.079999999998,18479.61
427.455,-31498.559999999998,34614.315,42456.195,27921.465,3258.27,-17284.364999999998,18486.945
298.395,-31764.329999999998,34459.155,42396.705,27894.059999999998,3287.7,-17237.295,18501.21
209.745,-31835.52,34356.96,42329.52,27890.55,3315.7799999999997,-17213.265,18487.71
209.475,-31766.265,34353.854999999996,42398.82,27916.829999999998,3331.2599999999998,-17202.239999999998,18478.98
310.995,-31657.23,34406.775,42403.905,27887.219999999998,3275.5049999999997,-17232.93,18477.495
408.195,-31571.73,34418.97,42345.135,27884.565,3241.305,-17263.305,18474.344999999998
488.07,-31380.03,34410.6,42433.92,27936.989999999998,3253.545,-17283.329999999998,18462.915
565.785,-31195.844999999998,34711.965,42630.615,27947.879999999997,3224.8799999999997,-17312.94,18471.555
566.55,-31276.754999999997,34860.78,42600.195,27916.155,3212.775,-17322.345,18484.469999999998
460.84499999999997,-31533.75,34587.405,42496.56,27918.855,3271.5899999999997,-17272.485,18488.16
384.705,-31684.32,34359.119999999995,42433.335,27890.684999999998,3290.7149999999997,-17233.065,18494.64
394.78499999999997,-31645.844999999998,34298.685,42377.22,27901.71,3296.0699999999997,-17232.255,18500.355
488.07,-31387.68,34397.055,42428.205,27928.079999999998,3263.22,-17276.265,18500.13
566.64,-31228.425,34590.69,42524.909999999996,27933.66,3228.975,-17318.43,18497.88
584.37,-31264.245,34658.01,42525.854999999996,27930.87,3226.9049999999997,-17328.015,18498.42
546.03,-31340.475,34628.4,42541.11,27938.43,3245.355,-17311.815,18494.37
513.675,-31346.55,34581.104999999996,42572.52,27950.489999999998,3262.41,-17291.07,18498.78
482.805,-31428.629999999997,34602.21,42583.185,27922.094999999998,3257.055,-17288.415,18501.975
422.145,-31638.87,34545.42,42490.665,27904.995,3280.5899999999997,-17261.235,18505.98
381.51,-31783.364999999998,34418.835,42294.06,27901.26,3303.6749999999997,-17239.14,18507.149999999998
394.83,-31705.155,34293.195,42347.07,27897.704999999998,3296.52,-17241.345,18505.395
464.715,-31478.579999999998,34402.59,42479.46,27914.085,3272.7599999999998,-17270.1,18497.88
487.03499999999997,-31355.774999999998,34596.315,42567.479999999996,27930.105,3248.73,-17302.23,18472.725
515.97,-31347.27,34705.71,42650.325,27932.715,3246.66,-17303.715,18488.7
487.755,-31454.594999999998,34658.46,42548.805,27896.219999999998,3249.0,-17286.48,18501.57
449.865,-31565.879999999997,34529.174999999996,42400.799999999996,27879.21,3268.98,-17264.565,18499.23
426.91499999999996,-31590.495,34399.485,42354.405,27873.945,3282.21,-17257.32,18486.405
419.715,-31612.68,34221.645,42377.985,27866.61,3271.3199999999997,-17261.235,18479.835
436.005,-31573.44,34341.84,42487.784999999996,27878.985,3241.17,-17293.23,18473.579999999998
437.21999999999997,-31538.25,34466.67,42506.1,27895.86,3248.46,-17304.255,18470.16
444.555,-31518.0,34541.28,42517.53,27927.809999999998,3262.41,-17303.175,18467.505
453.10499999999996,-31503.645,34477.604999999996,42576.885,27941.67,3265.29,-17301.239999999998,18475.245
469.84499999999997,-31460.129999999997,34402.455,42531.255,27909.585,3240.585,-17311.59,18481.68
462.87,-31510.17,34288.695,42330.104999999996,27865.035,3229.6949999999997,-17305.605,18473.67
465.47999999999996,-31508.145,34232.895,42235.47,27844.515,3205.7549999999997,-17310.87,18441.809999999998
471.06,-31424.265,34405.424999999996,42444.63,27888.885,3171.96,-17341.425,18431.145
443.07,-31572.765,34486.56,42495.21,27908.145,3184.02,-17327.745,18499.41
375.93,-31760.235,34435.485,42376.635,27856.17,3179.0699999999997,-17311.545,18497.295
355.635,-31726.664999999997,34348.545,42390.72,27874.26,3204.045,-17301.42,18459.27
420.255,-31541.129999999997,34352.685,42498.99,27926.594999999998,3221.955,-17296.605,18454.5
554.4449999999999,-31347.09,34405.244999999995,42556.635,27926.145,3195.72,-17316.809999999998,18492.03
581.0849999999999,-31317.164999999997,34335.045,42501.015,27907.469999999998,3199.095,-17333.19,18497.204999999998
478.79999999999995,-31440.51,34491.104999999996,42502.455,27916.065,3239.5049999999997,-17325.54,18471.465
362.385,-31701.645,34517.25,42463.034999999996,27918.989999999998,3270.6,-17297.64,18465.885
326.43,-31792.5,34379.46,42393.825,27882.989999999998,3266.685,-17276.355,18463.725
352.16999999999996,-31743.135,34193.97,42413.895,27875.745,3275.91,-17258.445,18467.46
421.78499999999997,-31556.25,34354.979999999996,42450.57,27874.98,3263.355,-17281.665,18469.934999999998
460.575,-31475.204999999998,34515.854999999996,42463.755,27915.75,3279.69,-17299.934999999998,18474.84
499.77,-31451.985,34457.58,42454.619999999995,27930.42,3279.87,-17300.61,18486.809999999998
585.81,-31402.754999999997,34255.125,42516.36,27928.62,3257.46,-17309.385,18518.805
571.8149999999999,-31416.66,34300.619999999995,42455.34,27898.379999999997,3225.915,-17341.2,18506.7
446.13,-31560.614999999998,34604.729999999996,42508.71,27892.62,3229.335,-17354.34,18466.785
406.48499999999996,-31674.42,34529.534999999996,42568.965,27892.44,3265.245,-17314.065,18479.385
478.755,-31660.829999999998,34156.305,42446.88,27881.91,3293.955,-17266.635,18514.755
545.49,-31537.44,34174.034999999996,42372.045,27879.39,3270.645,-17277.12,18514.035
572.5799999999999,-31386.239999999998,34384.32,42406.56,27876.96,3243.4649999999997,-17323.38,18496.98
537.795,-31423.004999999997,34294.275,42486.795,27927.405,3286.62,-17323.47,18483.704999999998
546.93,-31401.315,34258.229999999996,42480.18,27925.02,3294.585,-17307.585,18497.88
534.78,-31349.61,34412.895,42470.549999999996,27891.719999999998,3263.7599999999998,-17329.23,18487.89
507.06,-31436.46,34549.604999999996,42589.485,27903.78,3249.9449999999997,-17344.98,18477.899999999998
468.405,-31673.34,34536.104999999996,42611.445,27883.934999999998,3246.2549999999997,-17328.105,18479.745
417.87,-31795.515,34351.56,42544.034999999996,27861.39,3255.39,-17308.71,18485.01
349.78499999999997,-31800.78,34161.84,42520.185,27835.695,3262.725,-17286.345,18486.045
290.47499999999997,-31868.864999999998,34325.775,42480.36,27769.184999999998,3255.12,-17269.92,18484.11
308.295,-31866.344999999998,34319.25,42308.955,27750.645,3255.39,-17280.54,18467.82
393.075,-31773.285,34201.215,42251.67,27822.96,3298.14,-17283.78,18460.62
529.56,-31441.23,34147.53,42416.955,27868.77,3294.585,-17300.655,18468.405
649.53,-31171.364999999998,34328.565,42470.01,27874.26,3253.95,-17375.085,18472.59
654.255,-31166.235,34369.29,42485.445,27865.26,3228.075,-17405.28,18468.36
619.38,-31211.64,34594.965,42648.525,27892.934999999998,3236.895,-17395.875,18462.6
578.475,-31384.395,34543.53,42678.585,27897.39,3260.205,-17360.28,18481.23
560.52,-31499.64,34315.38,42514.02,27830.969999999998,3265.785,-17310.87,18523.35
509.84999999999997,-31549.995,34304.445,42451.02,27834.434999999998,3281.1299999999997,-17311.454999999998,18511.695
482.98499999999996,-31533.48,34252.695,42471.135,27862.289999999997,3295.125,-17304.12,18504.315
481.95,-31503.69,34256.565,42392.159999999996,27852.704999999998,3287.16,-17314.739999999998,18493.695
456.47999999999996,-31643.73,34293.104999999996,42481.305,27900.18,3324.7799999999997,-17306.954999999998,18480.87
484.02,-31722.21,34368.21,42548.625,27870.795,3298.5899999999997,-17306.37,18487.35
522.045,-31697.504999999997,34277.805,42582.869999999995,27833.579999999998,3265.29,-17309.655,18497.655
505.71,-31588.875,34330.994999999995,42699.015,27855.045,3263.265,-17322.12,18477.405
