ch_0,ch_1,ch_2,ch_3,ch_4,ch_5,ch_6,ch_7
-7929.2699999999995,-73089.09,-30257.82,-26030.52,-25772.805,-30380.265,-7952.04,28345.32
-7830.45,-73116.45,-30181.68,-25936.155,-25663.5,-30287.475,-7663.59,28493.73
-7708.7699999999995,-72947.025,-30102.93,-25883.91,-25629.39,-30274.649999999998,-7400.34,28661.309999999998
-7593.84,-72910.08,-30222.629999999997,-26049.78,-25816.41,-30459.96,-7440.75,28820.385
-7505.73,-72978.84,-30346.155,-26223.075,-26002.71,-30642.704999999998,-7623.764999999999,28960.92
-7412.804999999999,-72980.325,-30371.265,-26272.844999999998,-26031.51,-30653.01,-7620.48,29113.289999999997
-7325.639999999999,-73009.17,-30342.195,-26216.414999999997,-25904.745,-30518.954999999998,-7531.83,29265.975
-7243.92,-73034.595,-30350.07,-26214.795,-25905.645,-30537.809999999998,-7533.179999999999,29413.305
-7168.05,-73042.37999999999,-30370.14,-26239.59,-25941.015,-30582.315,-7682.219999999999,29558.879999999997
-7092.134999999999,-73054.845,-30393.27,-26253.18,-25915.274999999998,-30506.579999999998,-7720.605,29703.42
-7000.469999999999,-72973.98,-30288.42,-26136.675,-25748.414999999997,-30325.41,-7578.585,29852.82
-6898.7699999999995,-72924.61499999999,-30201.66,-26064.045,-25682.895,-30310.829999999998,-7451.73,30002.895
-6786.495,-72923.48999999999,-30296.114999999998,-26183.16,-25825.77,-30450.96,-7418.5199999999995,30161.475
-6686.73,-73026.27,-30419.324999999997,-26290.215,-25910.19,-30560.489999999998,-7448.04,30313.89
-6610.995,-73083.23999999999,-30518.864999999998,-26368.515,-25908.75,-30544.92,-7505.82,30448.71
-6537.24,-73113.075,-30608.37,-26465.445,-25938.405,-30536.37,-7547.535,30589.829999999998
-6464.5199999999995,-73171.395,-30687.704999999998,-26584.289999999997,-26043.57,-30655.35,-7593.344999999999,30734.46
-6386.445,-73187.685,-30691.305,-26636.489999999998,-26123.039999999997,-30671.01,-7662.014999999999,30886.155
-6308.37,-73093.635,-30548.475,-26464.364999999998,-26005.32,-30613.32,-7694.955,31038.434999999998
-6219.54,-72927.855,-30230.19,-26078.535,-25715.879999999997,-30366.855,-7720.0199999999995,31192.785
-6123.825,-72887.265,-30098.745,-25886.475,-25450.29,-30056.85,-7668.855,31348.395
-6035.8949999999995,-73002.87,-30197.385,-25986.825,-25489.844999999998,-30082.41,-7604.19,31495.23
-5934.915,-73062.0,-30234.465,-26028.899999999998,-25515.495,-30101.489999999998,-7527.195,31650.57
-5823.045,-73032.93,-30268.125,-26100.765,-25604.91,-30226.004999999997,-7606.889999999999,31811.039999999997
-5739.705,-73072.98,-30324.42,-26169.164999999997,-25687.44,-30383.37,-7752.33,31953.555
-5661.2699999999995,-73065.015,-30331.98,-26160.93,-25650.945,-30343.094999999998,-7796.34,32096.655
-5581.485,-73066.23,-30302.864999999998,-26103.285,-25512.434999999998,-30109.32,-7712.82,32244.434999999998
-5490.63,-73000.17,-30239.145,-26051.445,-25430.129999999997,-29966.579999999998,-7535.205,32402.475
-5419.9349999999995,-72967.00499999999,-30233.655,-26079.795,-25474.5,-29946.329999999998,-7427.295,32548.905
-5356.125,-73082.025,-30355.965,-26233.92,-25641.405,-30259.98,-7472.79,32687.82
-5273.325,-73085.4,-30457.215,-26319.51,-25694.91,-30407.76,-7651.844999999999,32829.57
-5170.1849999999995,-73020.15,-30359.43,-26216.235,-25629.795,-30396.105,-7603.74,32984.01
-5057.73,-73038.645,-30334.23,-26175.015,-25613.19,-30330.36,-7600.455,33145.47
-4949.28,-73158.48,-30424.184999999998,-26180.19,-25584.48,-30219.614999999998,-7751.25,33303.33
-4855.59,-73217.34,-30443.355,-26120.07,-25425.855,-30030.3,-7827.12,33453.36
-4754.07,-73019.925,-30255.12,-25966.395,-25251.795,-29867.489999999998,-7596.315,33612.975
-4660.5599999999995,-72871.425,-30134.925,-25960.184999999998,-25302.375,-29937.015,-7391.115,33769.845
-4582.215,-72901.845,-30215.024999999998,-26113.05,-25504.29,-30157.469999999998,-7377.57,33916.994999999995
-4516.83,-73094.58,-30443.399999999998,-26317.575,-25691.895,-30340.89,-7500.285,34055.685
-4438.125,-73254.87,-30498.795,-26312.445,-25633.035,-30264.84,-7596.09,34203.284999999996
-4334.13,-73161.855,-30383.954999999998,-26195.265,-25503.704999999998,-30132.495,-7531.605,34358.354999999996
-4222.08,-73017.72,-30274.469999999998,-26103.285,-25411.905,-30040.965,-7449.84,34511.715
-4120.245,-72966.645,-30310.965,-26171.684999999998,-25497.405,-30154.905,-7547.849999999999,34649.955
-4015.305,-72962.55,-30407.805,-26293.004999999997,-25626.51,-30302.37,-7650.09,34792.47
-3928.545,-72951.75,-30432.329999999998,-26295.704999999998,-25593.524999999998,-30221.82,-7599.509999999999,34928.19
-3847.0049999999997,-73030.545,-30481.92,-26316.36,-25579.934999999998,-30190.5,-7499.88,35066.295
-3769.875,-73143.045,-30558.51,-26377.739999999998,-25651.89,-30284.1,-7565.445,35203.365
-3690.0,-73176.75,-30542.76,-26354.43,-25620.344999999998,-30240.765,-7650.405,35342.055
-3612.285,-73169.91,-30493.079999999998,-26307.719999999998,-25554.78,-30168.225,-7710.075,35481.24
-3528.225,-73205.685,-30469.725,-26280.45,-25493.67,-30109.905,-7765.605,35625.33
-3428.595,-73255.41,-30454.469999999998,-26239.77,-25485.165,-30188.475,-7642.98,35780.534999999996
-3317.58,-73293.345,-30474.809999999998,-26267.129999999997,-25512.704999999998,-30142.079999999998,-7449.57,35938.17
-3195.6299999999997,-73212.56999999999,-30518.774999999998,-26329.545,-25508.655,-29999.879999999997,-7363.215,36092.295
-3071.835,-73063.62,-30515.895,-26328.6,-25421.355,-29943.855,-7446.96,36252.27
-2975.355,-73049.04,-30573.899999999998,-26407.079999999998,-25260.885,-29758.14,-7476.57,36401.895
-2888.055,-73178.28,-30797.235,-26615.25,-25361.504999999997,-29846.07,-7444.98,36547.02
-2811.96,-73258.605,-31062.914999999997,-26931.735,-25771.545,-30377.114999999998,-7503.929999999999,36683.955
-2738.88,-73296.45,-31213.89,-27260.594999999998,-26279.594999999998,-31051.664999999997,-7609.32,36819.72
-2647.935,-73221.66,-30934.71,-26845.289999999997,-25958.024999999998,-30681.495,-7880.219999999999,36966.104999999996
-2549.7,-73105.065,-30435.93,-26272.664999999997,-25585.875,-30299.039999999997,-8269.38,37111.455
-2429.8199999999997,-72920.655,-29987.46,-25800.975,-25157.024999999998,-29671.829999999998,-8089.514999999999,37275.795
-2306.16,-72816.705,-29731.094999999998,-25406.55,-24771.6,-29362.184999999998,-7502.219999999999,37447.92
-2202.5699999999997,-73163.655,-29940.93,-25541.1,-24861.149999999998,-29494.89,-7202.7,37608.435
-2100.1949999999997,-73330.65,-30160.035,-25841.565,-25129.71,-29768.76,-7286.715,37752.525
-2001.0149999999999,-73194.165,-30275.414999999997,-26056.844999999998,-25352.594999999998,-30010.05,-7414.065,37893.104999999996
-1918.3049999999998,-73082.06999999999,-30363.524999999998,-26153.954999999998,-25421.715,-30087.855,-7528.724999999999,38024.055
-1836.945,-73135.53,-30313.62,-26072.145,-25323.704999999998,-29970.09,-7581.735,38166.885
-1754.37,-73193.58,-30199.14,-25962.254999999997,-25199.864999999998,-29793.69,-7540.335,38317.86
-1672.875,-73089.18,-30193.065,-25981.469999999998,-25223.985,-29836.89,-7698.285,38462.58
-1580.6699999999998,-72820.215,-30147.93,-25973.774999999998,-25206.03,-29811.42,-7765.514999999999,38610.9
-1483.5149999999999,-72795.33,-30214.664999999997,-26053.695,-25258.094999999998,-29842.469999999998,-7575.165,38764.26
-1384.605,-72964.98,-30408.524999999998,-26259.3,-25454.295,-30036.329999999998,-7355.295,38914.695
-1286.73,-73178.595,-30606.57,-26460.495,-25620.704999999998,-30251.204999999998,-7398.764999999999,39062.295
-1183.2749999999999,-73204.69499999999,-30644.73,-26500.77,-25673.85,-30394.664999999997,-7499.295,39211.02
-1099.305,-73312.83,-30696.074999999997,-26518.905,-25702.02,-30312.585,-7600.23,39349.395
-1017.495,-73482.75,-30745.35,-26500.23,-25655.67,-30285.27,-7873.74,39487.455
-917.1899999999999,-73324.485,-30472.92,-26211.059999999998,-25369.695,-30011.715,-8018.099999999999,39640.905
-812.2049999999999,-73163.79,-30101.535,-25836.39,-24968.204999999998,-29559.824999999997,-7723.08,39806.235
-722.655,-73094.48999999999,-29994.39,-25728.614999999998,-24849.135,-29452.41,-7419.285,39964.68
-638.415,-73069.2,-30219.344999999998,-25978.32,-25103.34,-29723.715,-7449.12,40111.335
-551.2049999999999,-73123.785,-30452.67,-26243.684999999998,-25353.495,-29989.574999999997,-7484.445,40251.96
-443.745,-73129.455,-30468.015,-26271.405,-25371.495,-29983.23,-7317.315,40403.655
-321.93,-73074.105,-30504.149999999998,-26344.754999999997,-25462.26,-30057.57,-7296.66,40558.635
-216.315,-73140.03,-30615.48,-26462.43,-25572.015,-30157.289999999997,-7463.924999999999,40702.725
-132.93,-73349.86499999999,-30684.42,-26504.774999999998,-25569.765,-30119.625,-7648.92,40841.505
-32.445,-73326.105,-30535.739999999998,-26297.774999999998,-25283.25,-29765.204999999998,-7743.96,40998.735
69.84,-73126.44,-30303.36,-26057.475,-25037.73,-29520.18,-7604.235,41163.255
154.035,-73019.205,-30187.754999999997,-25976.43,-24988.23,-29529.719999999998,-7284.78,41317.784999999996
221.31,-73019.565,-30345.795,-26199.315,-25268.445,-29875.184999999998,-7215.84,41458.365
290.78999999999996,-73113.795,-30500.594999999998,-26356.635,-25428.015,-30021.84,-7379.28,41604.795
379.395,-73213.155,-30534.75,-26368.11,-25418.475,-29950.469999999998,-7441.2,41758.244999999995
496.755,-73270.70999999999,-30573.629999999997,-26396.504999999997,-25385.355,-29833.02,-7444.08,41928.075
616.05,-73268.685,-30631.364999999998,-26460.989999999998,-25384.41,-29859.164999999997,-7369.605,42097.455
719.9549999999999,-73248.795,-30758.489999999998,-26568.899999999998,-25540.605,-30139.065,-7322.94,42255.854999999996
808.11,-73232.145,-30812.67,-26627.985,-25494.885,-30109.32,-7399.844999999999,42406.02
897.255,-73177.785,-30712.094999999998,-26570.745,-25329.105,-29871.539999999997,-7399.799999999999,42562.305
965.79,-73233.81,-30702.914999999997,-26571.149999999998,-25436.79,-30106.89,-7318.755,42706.935
1038.465,-73322.145,-30786.93,-26597.52,-25562.879999999997,-30322.62,-7403.49,42860.88
1114.83,-73265.355,-30708.36,-26489.204999999998,-25510.77,-30270.6,-7483.679999999999,43015.32
1181.52,-73317.51,-30780.989999999998,-26624.114999999998,-25518.555,-30058.559999999998,-7396.83,43152.93
1267.47,-73422.98999999999,-30945.465,-26814.105,-25630.11,-29912.535,-7270.514999999999,43323.795
1374.48,-73359.315,-30754.35,-26556.03,-25468.469999999998,-29888.864999999998,-7360.965,43494.659999999996
1484.5049999999999,-73249.83,-30459.239999999998,-26231.805,-25362.495,-30049.965,-7647.255,43655.759999999995
1592.37,-73198.125,-30341.745,-26107.785,-25170.39,-29791.8,-7845.344999999999,43818.975
1686.5549999999998,-73054.75499999999,-30151.44,-25969.905,-24818.219999999998,-29408.895,-7568.865,43983.0
1775.07,-72988.515,-30185.594999999998,-26124.704999999998,-24751.844999999998,-29271.195,-7167.6449999999995,44153.235
1846.3049999999998,-73056.23999999999,-30512.43,-26388.945,-25011.54,-29495.07,-6890.58,44318.52
1909.845,-73165.095,-30712.815,-26548.965,-25322.985,-29828.879999999997,-6842.79,44482.905
1977.705,-73242.45,-30699.045,-26586.09,-25460.684999999998,-30027.735,-6922.304999999999,44645.22
2047.095,-73345.815,-30701.204999999998,-26568.18,-25531.155,-30169.62,-7038.495,44803.395
2135.25,-73328.895,-30719.07,-26545.59,-25624.17,-30282.3,-7274.429999999999,44966.924999999996
2240.8199999999997,-73291.36499999999,-30737.114999999998,-26507.295,-25505.684999999998,-30031.875,-7548.21,45135.405
2371.41,-73184.625,-30474.539999999997,-26196.84,-25147.89,-29607.704999999998,-7500.554999999999,45324.45
2488.185,-73165.815,-30238.739999999998,-25935.254999999997,-24969.69,-29501.414999999997,-7282.035,45500.13
2579.085,-73157.04,-30159.045,-25888.23,-24951.015,-29518.335,-7097.67,45660.6
2675.43,-73224.855,-30199.635,-25934.445,-24916.59,-29453.67,-7085.79,45833.174999999996
2759.49,-73063.395,-30126.51,-25899.254999999997,-24869.43,-29412.629999999997,-6982.965,46000.395
2829.105,-73082.47499999999,-30220.289999999997,-26029.89,-25006.815,-29559.465,-6838.83,46165.814999999995
2899.35,-73098.27,-30281.715,-26124.704999999998,-25112.79,-29685.239999999998,-6806.474999999999,46327.049999999996
2982.105,-73095.97499999999,-30360.375,-26199.45,-25175.385,-29745.765,-6845.3099999999995,46496.295
3068.145,-73084.95,-30357.855,-26166.96,-25101.675,-29675.879999999997,-6777.405,46670.31
3161.295,-73253.7,-30481.199999999997,-26264.7,-25127.64,-29641.364999999998,-6669.315,46843.695
3257.865,-73357.785,-30677.489999999998,-26501.219999999998,-25334.91,-29821.23,-6676.83,47003.805
3351.825,-73415.34,-30847.454999999998,-26706.465,-25594.289999999997,-30059.594999999998,-6717.195,47155.725
3443.805,-73472.94,-30992.039999999997,-26846.37,-25716.465,-30297.69,-6658.065,47314.034999999996
3524.58,-73455.25499999999,-30892.59,-26713.26,-25576.92,-30283.605,-6662.34,47461.634999999995
3615.48,-73367.50499999999,-30644.01,-26406.09,-25363.62,-30044.789999999997,-6855.66,47616.659999999996
3698.64,-73406.87999999999,-30611.835,-26345.655,-25328.745,-29935.079999999998,-7163.19,47768.13
3779.145,-73318.41,-30507.434999999998,-26203.815,-25067.79,-29635.649999999998,-7064.099999999999,47926.17
3854.6549999999997,-73205.64,-30361.004999999997,-26023.77,-24779.969999999998,-29355.3,-6644.565,48078.27
3928.095,-73266.48,-30500.55,-26191.44,-24843.329999999998,-29494.35,-6356.565,48222.854999999996
4000.5899999999997,-73361.87999999999,-30810.465,-26555.355,-25159.364999999998,-29905.155,-6321.735,48354.705
4087.71,-73454.48999999999,-31035.69,-26885.114999999998,-25536.915,-30203.73,-6410.61,48491.865
4189.545,-73402.02,-31009.77,-26982.405,-25817.219999999998,-30253.454999999998,-6501.915,48637.08
4297.86,-73214.19,-30588.434999999998,-26472.329999999998,-25355.295,-29760.074999999997,-6562.125,48793.994999999995
4383.045,-73162.305,-30385.754999999997,-26191.17,-25091.415,-29449.17,-6492.554999999999,48937.905
4452.929999999999,-73257.3,-30584.295,-26392.635,-25307.28,-30004.199999999997,-6445.304999999999,49076.595
4520.07,-73312.73999999999,-30754.844999999998,-26639.37,-25559.594999999998,-30384.989999999998,-6545.745,49212.314999999995
4585.1849999999995,-73345.545,-30852.629999999997,-26780.94,-25544.43,-30213.135,-6571.53,49349.744999999995
4656.285,-73372.905,-30806.145,-26695.53,-25371.629999999997,-29827.754999999997,-6622.83,49487.13
4741.605,-73391.4,-30714.704999999998,-26497.35,-25299.629999999997,-29837.475,-6825.78,49623.435
4843.485,-73273.59,-30584.024999999998,-26284.32,-25097.04,-29603.835,-7158.105,49757.759999999995
4960.304999999999,-73111.86,-30260.565,-25890.57,-24659.145,-29092.95,-7036.0199999999995,49910.534999999996
5065.92,-72952.73999999999,-29989.35,-25658.594999999998,-24451.425,-28933.875,-6396.344999999999,50063.534999999996
5142.33,-73056.06,-30186.539999999997,-25945.155,-24803.325,-29367.09,-5904.8099999999995,50201.595
5202.179999999999,-73380.915,-30524.085,-26326.26,-25239.6,-29871.36,-6007.41,50323.68
5278.455,-73473.25499999999,-30525.93,-26342.64,-25281.45,-29946.285,-6083.099999999999,50460.93
5362.155,-73414.665,-30448.844999999998,-26258.805,-25179.704999999998,-29864.43,-6099.705,50607.945
5439.33,-73350.315,-30527.954999999998,-26330.715,-25199.504999999997,-29871.629999999997,-6199.0199999999995,50751.27
5494.995,-73301.12999999999,-30620.204999999998,-26414.864999999998,-25180.155,-29778.704999999998,-6362.37,50868.405
