ch_0,ch_1,ch_2,ch_3,ch_4,ch_5,ch_6,ch_7
-3966.75,-23976.855,18831.015,1782.585,9741.734999999999,-21838.14,-5912.415,15403.005
-4005.315,-24043.454999999998,18794.969999999998,1753.5149999999999,9727.199999999999,-21841.155,-5915.429999999999,15388.47
-4002.615,-24103.575,18673.11,1730.61,9730.529999999999,-21841.92,-5914.62,15391.305
-3946.14,-24074.055,18594.45,1740.33,9755.955,-21821.219999999998,-5901.075,15417.945
-3902.355,-23960.879999999997,18668.52,1756.26,9743.67,-21839.399999999998,-5908.41,15426.0
-3877.92,-23850.945,18798.03,1782.945,9743.039999999999,-21843.045,-5907.33,15431.31
-3889.17,-23862.105,18820.17,1793.205,9757.44,-21829.635,-5898.78,15431.805
-3931.9649999999997,-23901.93,18808.29,1803.51,9770.4,-21820.5,-5895.719999999999,15418.619999999999
-3991.5,-23991.12,18780.84,1790.5049999999999,9765.81,-21824.19,-5901.48,15396.84
-4011.12,-24073.29,18731.835,1740.0149999999999,9727.65,-21839.129999999997,-5902.065,15384.914999999999
-4000.725,-24098.76,18651.059999999998,1695.0149999999999,9695.88,-21861.45,-5906.34,15385.275
-3986.5049999999997,-24107.67,18646.92,1692.36,9687.555,-21882.78,-5924.295,15382.574999999999
-3962.16,-24048.315,18733.454999999998,1761.12,9738.72,-21856.815,-5923.844999999999,15389.505
-3892.14,-23875.92,18811.755,1817.595,9771.705,-21841.92,-5913.945,15415.965
-3829.95,-23753.34,18884.835,1849.725,9780.93,-21840.03,-5905.304999999999,15442.47
-3883.5899999999997,-23863.545,18856.71,1835.325,9782.595,-21831.704999999998,-5901.84,15425.82
-3910.3199999999997,-23952.42,18789.48,1811.61,9778.455,-21831.12,-5896.349999999999,15420.51
-3909.285,-23942.34,18788.489999999998,1815.12,9778.859999999999,-21836.07,-5906.34,15416.279999999999
-3899.0699999999997,-23895.989999999998,18820.62,1808.73,9757.08,-21859.785,-5917.23,15419.43
-3916.35,-23916.285,18802.98,1768.0049999999999,9731.025,-21876.84,-5917.455,15413.085
-3938.22,-23957.55,18769.32,1760.085,9734.085,-21866.67,-5905.08,15404.085
-3943.62,-23988.87,18740.385,1771.9199999999998,9743.445,-21859.379999999997,-5903.325,15398.234999999999
-3924.81,-23994.315,18695.385,1760.58,9737.82,-21869.82,-5913.405,15408.18
-3912.66,-23966.19,18729.495,1771.7849999999999,9737.055,-21876.434999999998,-5916.599999999999,15411.824999999999
-3908.115,-23947.379999999997,18771.075,1796.22,9761.67,-21860.82,-5906.115,15415.56
-3908.3399999999997,-23942.34,18796.184999999998,1796.445,9759.869999999999,-21864.69,-5904.135,15413.894999999999
-3902.1299999999997,-23930.145,18805.05,1802.61,9759.824999999999,-21870.54,-5903.955,15418.845
-3904.47,-23915.475,18809.64,1807.3799999999999,9768.869999999999,-21866.445,-5905.215,15412.859999999999
-3915.045,-23934.42,18823.545,1807.11,9765.63,-21869.37,-5902.11,15407.73
-3938.04,-23981.489999999998,18830.745,1808.685,9746.82,-21890.25,-5908.365,15397.56
-3947.265,-24019.515,18806.715,1799.55,9727.244999999999,-21904.965,-5913.315,15393.555
-3939.165,-24009.885,18753.165,1759.05,9712.755,-21910.905,-5920.0199999999995,15395.805
-3925.575,-23972.129999999997,18709.155,1711.485,9716.265,-21905.325,-5913.09,15398.46
-3918.6,-23937.39,18792.045,1742.8049999999998,9730.935,-21896.91,-5907.42,15396.84
-3908.9249999999997,-23940.675,18800.864999999998,1809.1799999999998,9776.654999999999,-21860.774999999998,-5895.405,15401.699999999999
-3899.52,-23937.48,18773.91,1820.835,9791.46,-21851.864999999998,-5900.58,15404.849999999999
-3908.43,-23944.184999999998,18788.805,1805.8049999999998,9775.215,-21864.285,-5900.8949999999995,15400.935
-3921.075,-23955.21,18827.684999999998,1815.12,9782.505,-21863.25,-5897.474999999999,15395.984999999999
-3940.515,-24004.395,18824.445,1810.0349999999999,9778.77,-21871.44,-5897.7,15389.144999999999
-3949.3799999999997,-24042.329999999998,18761.13,1775.205,9748.71,-21895.649999999998,-5904.2699999999995,15380.279999999999
-3924.315,-24009.21,18733.635,1786.635,9758.295,-21888.855,-5899.995,15386.849999999999
-3895.785,-23934.51,18778.77,1795.095,9752.58,-21897.495,-5902.92,15395.22
-3889.44,-23914.665,18803.88,1790.865,9737.505,-21912.39,-5908.59,15396.119999999999
-3904.3799999999997,-23954.309999999998,18784.44,1761.6599999999999,9730.619999999999,-21915.27,-5905.125,15390.449999999999
-3911.895,-23975.145,18769.41,1742.985,9737.324999999999,-21908.16,-5901.84,15383.295
-3910.185,-23955.57,18835.469999999998,1800.6299999999999,9768.645,-21884.85,-5897.07,15381.269999999999
-3927.33,-23975.145,18839.34,1820.07,9774.855,-21883.815,-5899.365,15375.555
-3945.645,-24012.945,18814.995,1814.355,9780.705,-21877.29,-5893.605,15370.154999999999
-3969.0899999999997,-24034.68,18784.079999999998,1782.1799999999998,9759.555,-21888.36,-5892.3,15359.265
-3961.44,-24047.954999999998,18756.585,1763.325,9749.07,-21906.765,-5901.57,15362.46
-3902.22,-23984.864999999998,18792.18,1808.1899999999998,9784.71,-21895.739999999998,-5910.3,15381.404999999999
-3831.12,-23871.915,18861.255,1847.205,9787.77,-21904.605,-5907.285,15409.035
-3827.25,-23864.129999999997,18856.755,1831.5449999999998,9770.76,-21911.625,-5903.28,15412.455
-3879.99,-23936.445,18851.445,1817.5049999999999,9761.984999999999,-21914.864999999998,-5905.71,15390.0
-3942.99,-24007.725,18853.829999999998,1794.2849999999999,9735.164999999999,-21931.829999999998,-5903.639999999999,15364.619999999999
-3973.8599999999997,-24066.045,18811.125,1771.695,9716.85,-21941.1,-5899.23,15352.335
-3952.35,-24087.555,18746.28,1769.5349999999999,9743.984999999999,-21913.155,-5889.825,15358.185
-3874.41,-23995.395,18772.425,1819.71,9789.66,-21892.184999999998,-5893.245,15384.96
-3821.49,-23908.274999999998,18792.945,1812.195,9780.39,-21902.489999999998,-5886.945,15412.635
-3833.8199999999997,-23885.954999999998,18828.899999999998,1817.37,9773.91,-21905.325,-5885.82,15402.734999999999
-3841.6949999999997,-23872.41,18892.305,1838.655,9775.08,-21912.93,-5893.335,15393.105
-3857.895,-23883.344999999998,18961.605,1867.995,9791.279999999999,-21903.704999999998,-5896.17,15382.529999999999
-3875.265,-23934.87,18939.735,1857.645,9789.57,-21900.825,-5894.054999999999,15376.185
-3874.5899999999997,-23982.254999999997,18809.82,1796.22,9763.109999999999,-21913.065,-5887.62,15381.404999999999
-3864.42,-23996.114999999998,18702.585,1745.6399999999999,9741.51,-21927.915,-5888.969999999999,15383.744999999999
-3845.43,-23944.454999999998,18772.559999999998,1783.3049999999998,9749.88,-21933.54,-5893.2,15385.635
-3848.49,-23927.04,18844.245,1820.0249999999999,9767.115,-21923.64,-5892.165,15381.045
-3859.6949999999997,-23938.469999999998,18883.755,1834.83,9775.215,-21921.075,-5888.79,15377.175
-3858.93,-23961.105,18882.135,1830.78,9770.175,-21928.364999999998,-5884.83,15380.55
-3874.5,-24000.704999999998,18818.82,1802.4299999999998,9754.92,-21938.805,-5890.995,15368.67
-3877.1099999999997,-24000.614999999998,18802.215,1801.08,9766.529999999999,-21925.215,-5886.045,15368.76
-3868.02,-23982.57,18821.969999999998,1781.235,9748.89,-21933.0,-5877.675,15373.845
-3870.45,-23993.864999999998,18773.91,1760.58,9747.404999999999,-21934.98,-5883.795,15370.335
-3892.725,-23995.844999999998,18752.445,1777.995,9767.025,-21929.129999999997,-5898.825,15352.244999999999
-3890.16,-23963.309999999998,18844.2,1820.7,9777.96,-21923.19,-5896.62,15351.21
-3876.39,-23960.565,18912.69,1847.475,9780.795,-21923.82,-5890.365,15360.435
-3835.845,-23940.765,18876.285,1840.5449999999998,9779.175,-21928.68,-5884.74,15379.65
-3815.5049999999997,-23905.485,18840.645,1824.48,9771.75,-21931.649999999998,-5880.15,15384.779999999999
-3836.3399999999997,-23950.844999999998,18832.59,1824.12,9773.64,-21929.85,-5876.955,15380.234999999999
-3865.77,-24001.92,18799.469999999998,1793.835,9751.68,-21945.42,-5882.219999999999,15366.689999999999
-3872.8799999999997,-23995.17,18812.745,1798.7849999999999,9758.43,-21940.515,-5886.54,15358.455
-3855.7349999999997,-23966.64,18861.975,1829.475,9774.09,-21928.77,-5878.215,15369.255
-3858.345,-23981.94,18854.28,1805.04,9758.43,-21936.87,-5879.429999999999,15364.71
-3871.08,-23987.07,18850.184999999998,1817.82,9765.27,-21941.055,-5892.165,15351.48
-3879.045,-23981.805,18866.52,1837.26,9777.645,-21933.405,-5890.094999999999,15351.974999999999
-3901.365,-24046.379999999997,18915.885,1836.45,9770.67,-21937.094999999998,-5886.0,15348.644999999999
-3921.5249999999996,-24150.329999999998,18862.739999999998,1796.2649999999999,9744.66,-21948.93,-5876.82,15340.275
-3895.4249999999997,-24100.605,18776.34,1787.49,9756.675,-21944.43,-5879.07,15339.51
-3809.565,-23910.48,18764.954999999998,1795.635,9773.234999999999,-21941.055,-5882.04,15370.109999999999
-3770.64,-23813.01,18828.135,1799.5049999999999,9762.345,-21951.585,-5877.0,15386.31
-3789.6299999999997,-23840.594999999998,18903.78,1831.1399999999999,9772.785,-21942.945,-5876.73,15378.164999999999
-3821.94,-23904.54,18879.39,1819.08,9768.06,-21940.92,-5876.82,15364.26
-3838.5,-23934.329999999998,18864.809999999998,1812.2849999999999,9762.84,-21945.285,-5880.915,15354.99
-3833.595,-23945.625,18832.005,1815.84,9769.725,-21946.725,-5882.13,15359.445
-3828.96,-23941.395,18839.385,1835.55,9783.359999999999,-21940.739999999998,-5884.11,15357.779999999999
-3826.2149999999997,-23939.954999999998,18834.255,1826.9099999999999,9770.76,-21949.559999999998,-5886.495,15356.609999999999
-3833.955,-23944.68,18851.94,1836.405,9771.48,-21952.305,-5884.0199999999995,15353.955
-3842.145,-23948.73,18890.505,1847.745,9771.75,-21952.395,-5877.09,15352.785
-3854.9249999999997,-23979.015,18879.21,1828.575,9761.13,-21956.715,-5872.7699999999995,15349.994999999999
-3869.595,-24015.059999999998,18851.399999999998,1800.45,9748.17,-21966.3,-5878.08,15339.375
-3870.18,-24044.129999999997,18797.399999999998,1784.5649999999998,9748.755,-21966.12,-5873.219999999999,15341.265
-3868.515,-24032.295,18776.655,1786.185,9750.914999999999,-21964.95,-5869.755,15341.085
-3870.45,-24011.415,18807.66,1785.96,9751.185,-21962.565,-5880.915,15335.685
-3859.335,-24001.739999999998,18775.62,1778.895,9743.4,-21974.94,-5884.2,15343.605
-3854.52,-24004.934999999998,18796.995,1799.37,9758.16,-21964.95,-5879.5199999999995,15345.404999999999
-3862.44,-23969.295,18909.63,1851.885,9770.13,-21960.989999999998,-5881.905,15337.035
-3877.83,-23973.84,18931.86,1844.37,9749.52,-21973.545,-5881.455,15332.22
-3878.055,-24019.065,18822.825,1800.495,9727.695,-21984.885,-5872.59,15337.17
-3842.145,-24004.53,18738.18,1785.195,9739.71,-21977.01,-5858.82,15354.63
-3813.8399999999997,-23930.954999999998,18801.36,1828.3049999999998,9787.68,-21946.86,-5864.04,15356.295
-3828.33,-23944.364999999998,18847.215,1853.37,9808.244999999999,-21932.415,-5869.62,15350.625
-3827.52,-23956.785,18847.844999999998,1839.0149999999999,9789.885,-21949.739999999998,-5869.3949999999995,15353.369999999999
-3833.325,-23952.78,18869.579999999998,1846.08,9782.46,-21954.105,-5863.365,15350.535
-3853.17,-23961.915,18862.245,1836.99,9771.029999999999,-21959.55,-5859.179999999999,15346.619999999999
-3864.1949999999997,-23977.485,18846.405,1819.62,9753.435,-21979.17,-5868.719999999999,15341.445
-3844.71,-23987.475,18840.42,1821.0149999999999,9758.295,-21972.239999999998,-5865.255,15346.935
-3819.42,-23977.575,18834.344999999998,1820.2949999999998,9769.815,-21966.84,-5865.3,15350.625
-3819.42,-23961.555,18943.38,1855.71,9790.605,-21956.805,-5857.83,15350.175
-3835.62,-23987.925,18961.11,1867.365,9790.154999999999,-21951.629999999997,-5850.179999999999,15349.635
-3840.8399999999997,-23999.985,18843.3,1829.5649999999998,9771.885,-21962.969999999998,-5855.13,15345.585
-3827.52,-23959.844999999998,18789.21,1791.72,9749.52,-21978.629999999997,-5857.785,15349.545
-3837.1949999999997,-23966.325,18818.37,1792.8,9754.695,-21977.01,-5863.455,15340.994999999999
-3843.81,-24004.215,18811.62,1802.745,9775.215,-21964.905,-5863.59,15338.385
-3835.665,-23999.535,18803.655,1819.3049999999998,9787.41,-21957.795,-5861.5199999999995,15341.445
-3825.6749999999997,-23958.495,18836.19,1836.1799999999998,9779.13,-21970.71,-5863.365,15343.47
-3838.77,-23956.155,18881.594999999998,1860.48,9781.965,-21974.399999999998,-5862.465,15337.664999999999
-3863.6549999999997,-23996.79,18899.055,1855.395,9781.65,-21969.719999999998,-5857.514999999999,15327.18
-3862.935,-23998.094999999998,18920.25,1827.09,9763.695,-21973.274999999998,-5859.224999999999,15323.58
-3849.165,-23995.079999999998,18861.57,1775.205,9736.109999999999,-21988.71,-5855.355,15332.13
-3838.14,-24018.93,18748.934999999998,1757.61,9729.359999999999,-22003.469999999998,-5855.085,15340.814999999999
-3817.7999999999997,-23997.285,18731.52,1782.405,9751.77,-22002.48,-5867.505,15347.925
-3811.5899999999997,-23961.78,18821.61,1836.09,9779.85,-21989.655,-5871.599999999999,15347.474999999999
-3803.265,-23931.629999999997,18904.454999999998,1880.9099999999999,9807.885,-21971.79,-5861.34,15351.84
-3810.69,-23949.765,18905.489999999998,1882.98,9808.47,-21967.379999999997,-5854.635,15350.085
-3829.68,-23973.48,18870.434999999998,1850.31,9792.27,-21972.285,-5852.25,15342.93
-3850.605,-23978.114999999998,18869.219999999998,1822.725,9767.385,-21988.8,-5861.115,15329.43
-3863.115,-23996.565,18861.66,1817.235,9772.109999999999,-21981.015,-5859.045,15328.574999999999
-3881.97,-24061.184999999998,18839.88,1801.485,9779.085,-21968.37,-5859.045,15322.455
-3898.7549999999997,-24111.27,18779.175,1768.4099999999999,9758.609999999999,-21980.114999999998,-5861.25,15314.039999999999
-3886.515,-24075.27,18723.735,1755.0,9742.994999999999,-21995.594999999998,-5868.36,15312.779999999999
-3836.745,-23963.85,18821.745,1804.23,9757.845,-21994.695,-5864.175,15332.355
-3810.645,-23908.5,18882.54,1826.9099999999999,9766.845,-21998.295,-5868.764999999999,15340.859999999999
-3818.6549999999997,-23931.629999999997,18871.38,1836.0449999999998,9784.529999999999,-21984.795,-5862.599999999999,15341.265
-3812.895,-23928.795,18889.695,1853.6399999999999,9795.285,-21975.614999999998,-5852.34,15346.08
-3814.1549999999997,-23920.02,18900.135,1867.455,9798.435,-21976.515,-5853.014999999999,15341.76
-3850.1549999999997,-23989.094999999998,18889.92,1857.96,9776.34,-21992.895,-5859.045,15329.519999999999
-3884.535,-24058.754999999997,18900.63,1847.79,9757.619999999999,-22006.53,-5862.51,15318.0
-3892.995,-24070.32,18870.39,1806.2549999999999,9754.47,-22003.515,-5863.59,15313.05
-3852.045,-24003.18,18797.309999999998,1779.7949999999998,9769.815,-21987.989999999998,-5848.965,15333.795
-3819.42,-23944.14,18801.585,1824.345,9797.895,-21963.195,-5834.295,15348.779999999999
