ch_0,ch_1,ch_2,ch_3,ch_4,ch_5,ch_6,ch_7
-90128.87999999999,-106202.025,-83438.595,-92206.26,-92392.73999999999,-106655.31,-45642.915,-74035.34999999999
-90131.12999999999,-106212.105,-83441.565,-92203.65,-92382.435,-106649.235,-45554.4,-73994.355
-90082.845,-106182.135,-83414.025,-92172.105,-92346.20999999999,-106607.87999999999,-45496.215,-73954.305
-90024.84,-106121.34,-83358.675,-92119.905,-92306.97,-106557.84,-45475.604999999996,-73943.595
-89923.455,-106003.89,-83265.12,-92039.48999999999,-92252.7,-106489.17,-45492.615,-73938.915
-89816.48999999999,-105890.89499999999,-83157.75,-91932.84,-92171.385,-106391.34,-45530.46,-73929.915
-89700.075,-105782.175,-83042.64,-91820.295,-92072.06999999999,-106279.425,-45557.325,-73908.27
-89638.065,-105715.665,-82980.22499999999,-91763.055,-92012.12999999999,-106218.495,-45563.04,-73888.245
-89595.72,-105647.48999999999,-82936.08,-91722.15,-91957.995,-106169.84999999999,-45531.765,-73842.84
-89589.51,-105633.315,-82928.295,-91710.9,-91923.61499999999,-106140.23999999999,-45459.585,-73797.25499999999
-89593.83,-105668.64,-82922.355,-91684.44,-91872.58499999999,-106092.18,-45368.549999999996,-73737.27
-89598.64499999999,-105677.955,-82924.155,-91673.91,-91844.955,-106072.065,-45280.215,-73692.855
-89558.28,-105649.73999999999,-82880.01,-91630.08,-91805.175,-106033.14,-45226.08,-73654.155
-89488.98,-105604.155,-82823.58,-91576.75499999999,-91768.905,-105990.075,-45214.83,-73641.06
-89378.73,-105485.48999999999,-82721.87999999999,-91494.09,-91715.715,-105935.58,-45234.854999999996,-73629.72
-89234.955,-105355.305,-82598.58,-91381.905,-91631.16,-105842.87999999999,-45272.835,-73609.47
-89116.01999999999,-105223.905,-82495.26,-91294.065,-91554.03,-105760.305,-45306.54,-73590.705
-89066.87999999999,-105149.11499999999,-82431.9,-91237.59,-91491.3,-105698.47499999999,-45323.1,-73567.75499999999
-89062.605,-105135.25499999999,-82413.54,-91199.11499999999,-91433.205,-105636.51,-45307.935,-73535.895
-89076.105,-105138.81,-82414.17,-91188.045,-91393.065,-105598.08,-45228.78,-73485.81
-89076.51,-105165.765,-82419.345,-91183.905,-91365.705,-105576.84,-45130.185,-73424.06999999999
-89074.70999999999,-105165.54,-82399.68,-91159.245,-91328.94,-105548.04,-45046.305,-73363.59
-89059.14,-105139.89,-82366.2,-91122.56999999999,-91292.715,-105511.14,-44987.13,-73323.18
-88986.78,-105073.965,-82302.61499999999,-91069.33499999999,-91256.22,-105472.305,-44967.645,-73300.545
-88872.61499999999,-104953.635,-82220.715,-91009.39499999999,-91221.075,-105434.37,-44981.955,-73287.18
-88763.265,-104851.845,-82137.555,-90931.995,-91167.435,-105369.345,-45010.08,-73280.745
-88653.915,-104725.53,-82029.915,-90837.495,-91090.53,-105283.98,-45036.405,-73256.895
-88600.59,-104681.97,-81974.52,-90780.61499999999,-91032.165,-105224.94,-45039.375,-73234.44
-88569.36,-104694.075,-81948.825,-90731.79,-90965.7,-105160.36499999999,-44997.119999999995,-73187.73
-88545.78,-104666.265,-81934.73999999999,-90703.26,-90911.51999999999,-105109.515,-44923.365,-73123.875
-88549.56,-104658.705,-81930.23999999999,-90704.43,-90888.39,-105097.31999999999,-44831.07,-73064.925
-88578.0,-104648.58,-81925.155,-90707.84999999999,-90881.955,-105096.95999999999,-44739.674999999996,-73025.09999999999
-88562.83499999999,-104612.89499999999,-81899.64,-90684.135,-90855.98999999999,-105069.69,-44674.515,-72988.33499999999
-88496.055,-104539.635,-81843.435,-90628.92,-90808.69499999999,-105015.23999999999,-44652.195,-72956.61
-88429.95,-104470.245,-81780.12,-90562.5,-90750.19499999999,-104944.185,-44658.63,-72943.73999999999
-88326.72,-104383.03499999999,-81680.805,-90462.285,-90664.83,-104845.00499999999,-44692.155,-72921.15
-88229.83499999999,-104320.62,-81584.415,-90355.00499999999,-90570.915,-104746.31999999999,-44720.1,-72897.345
-88157.43,-104290.69499999999,-81535.095,-90296.415,-90509.48999999999,-104691.95999999999,-44712.45,-72865.53
-88140.19499999999,-104242.76999999999,-81516.285,-90289.39499999999,-90495.94499999999,-104692.31999999999,-44662.95,-72821.34
-88149.64499999999,-104249.205,-81505.98,-90280.89,-90475.875,-104683.905,-44579.159999999996,-72750.555
-88171.73999999999,-104285.205,-81530.37,-90303.12,-90471.06,-104692.68,-44462.564999999995,-72679.635
-88212.59999999999,-104316.65999999999,-81587.7,-90343.035,-90485.01,-104718.28499999999,-44343.45,-72624.23999999999
-88228.75499999999,-104306.715,-81594.62999999999,-90354.69,-90493.155,-104731.065,-44253.494999999995,-72575.415
-88199.685,-104258.43,-81562.635,-90337.5,-90487.08,-104724.675,-44200.979999999996,-72533.025
-88167.64499999999,-104221.98,-81544.23,-90324.72,-90490.05,-104724.765,-44163.36,-72509.12999999999
-88134.03,-104208.12,-81513.315,-90284.805,-90464.89499999999,-104692.59,-44132.67,-72477.0
-88105.86,-104195.925,-81469.125,-90234.315,-90421.2,-104643.36,-44097.795,-72429.525
-88116.48,-104186.11499999999,-81465.525,-90227.16,-90405.98999999999,-104634.26999999999,-44041.68,-72386.37
-88146.81,-104233.76999999999,-81502.83,-90253.485,-90409.995,-104647.95,-43949.205,-72333.72
-88197.39,-104282.235,-81550.44,-90295.065,-90418.14,-104663.655,-43822.935,-72259.37999999999
-88278.165,-104365.935,-81623.97,-90357.84,-90449.81999999999,-104705.37,-43672.814999999995,-72183.645
-88348.185,-104417.595,-81680.805,-90412.605,-90492.12,-104760.98999999999,-43536.33,-72125.37
-88388.595,-104478.795,-81726.39,-90447.97499999999,-90531.54,-104806.665,-43424.415,-72083.83499999999
-88380.855,-104489.19,-81733.68,-90454.41,-90556.47,-104832.45,-43347.96,-72041.31
-88376.48999999999,-104476.95,-81720.765,-90448.245,-90576.495,-104849.64,-43297.515,-72018.495
-88351.605,-104421.51,-81675.405,-90412.47,-90560.87999999999,-104826.015,-43276.185,-71994.69
-88338.105,-104404.23,-81633.06,-90369.9,-90529.65,-104786.50499999999,-43257.24,-71972.235
-88336.98,-104424.93,-81629.09999999999,-90362.43,-90522.765,-104783.265,-43216.56,-71944.065
-88364.11499999999,-104473.485,-81666.98999999999,-90396.09,-90544.23,-104813.14499999999,-43128.405,-71904.51
-88412.625,-104518.17,-81719.37,-90448.01999999999,-90576.45,-104855.985,-43010.28,-71847.81
-88453.08,-104552.955,-81779.265,-90504.54,-90614.06999999999,-104905.125,-42878.07,-71779.905
-88492.72499999999,-104592.375,-81831.555,-90557.81999999999,-90657.62999999999,-104956.965,-42753.915,-71728.56
-88533.0,-104621.805,-81865.125,-90595.70999999999,-90697.00499999999,-104997.78,-42645.689999999995,-71697.59999999999
-88528.14,-104605.37999999999,-81844.605,-90579.555,-90696.105,-104983.11,-42587.82,-71673.795
-88506.855,-104563.39499999999,-81811.845,-90553.275,-90689.4,-104953.23,-42565.005,-71663.94
-88489.89,-104509.39499999999,-81774.09,-90527.67,-90682.01999999999,-104932.75499999999,-42562.395,-71667.45
-88440.25499999999,-104449.68,-81720.135,-90475.425,-90644.94,-104887.75499999999,-42562.755,-71654.44499999999
-88421.265,-104459.22,-81695.61,-90433.08,-90605.7,-104843.51999999999,-42544.034999999996,-71637.48
-88453.035,-104495.58,-81718.69499999999,-90441.94499999999,-90599.12999999999,-104842.62,-42480.9,-71606.565
-88467.93,-104542.65,-81752.94,-90475.29,-90615.015,-104873.89499999999,-42385.5,-71550.62999999999
-88506.94499999999,-104635.03499999999,-81819.765,-90536.48999999999,-90656.955,-104933.51999999999,-42258.96,-71496.62999999999
-88559.685,-104697.0,-81878.08499999999,-90590.12999999999,-90700.245,-104985.855,-42128.549999999996,-71435.16
-88607.51999999999,-104722.11,-81921.285,-90635.94,-90744.795,-105032.87999999999,-42022.26,-71393.58
-88615.845,-104712.97499999999,-81917.595,-90639.09,-90762.25499999999,-105045.61499999999,-41960.205,-71376.48
-88588.215,-104677.11,-81893.97,-90620.86499999999,-90766.845,-105038.09999999999,-41931.405,-71368.2
-88560.765,-104627.97,-81868.31999999999,-90600.39,-90764.19,-105023.97,-41917.275,-71361.58499999999
-88549.73999999999,-104581.39499999999,-81843.75,-90588.23999999999,-90758.11499999999,-105014.79,-41891.76,-71352.62999999999
-88594.73999999999,-104616.765,-81876.06,-90621.855,-90780.39,-105038.50499999999,-41835.104999999996,-71331.525
-88655.625,-104684.89499999999,-81934.47,-90660.64499999999,-90797.04,-105061.905,-41742.27,-71279.86499999999
-88759.53,-104800.905,-82026.94499999999,-90726.48,-90837.81,-105110.64,-41614.29,-71233.425
-88861.455,-104934.95999999999,-82094.265,-90789.12,-90887.265,-105170.94,-41476.5,-71185.815
-88907.175,-105050.34,-82169.01,-90839.87999999999,-90931.00499999999,-105222.69,-41347.665,-71139.95999999999
-88924.31999999999,-105055.69499999999,-82215.94499999999,-90886.41,-90982.17,-105277.76999999999,-41249.655,-71108.595
-88913.79,-105017.67,-82211.895,-90894.915,-91011.15,-105301.98,-41199.75,-71093.565
-88892.64,-104988.69,-82199.205,-90882.045,-91025.64,-105303.59999999999,-41179.814999999995,-71102.52
-88842.915,-104936.89499999999,-82151.145,-90843.705,-91016.50499999999,-105281.28,-41186.88,-71109.72
-88798.00499999999,-104882.12999999999,-82083.915,-90791.955,-90985.14,-105240.23999999999,-41189.31,-71099.685
-88803.54,-104878.125,-82086.03,-90795.285,-90979.83,-105229.17,-41164.965,-71088.165
-88855.245,-104922.54,-82136.79,-90839.025,-90997.065,-105245.28,-41091.299999999996,-71066.34
-88937.09999999999,-104993.81999999999,-82189.485,-90877.5,-91012.68,-105266.97,-40989.96,-71026.92
-89003.25,-105069.42,-82251.22499999999,-90915.25499999999,-91028.25,-105292.98,-40875.84,-70975.125
-89026.155,-105121.39499999999,-82292.22,-90937.305,-91048.095,-105313.815,-40789.125,-70945.83
-89013.51,-105139.305,-82297.395,-90948.105,-91075.5,-105343.69499999999,-40740.119999999995,-70937.325
-88980.345,-105081.93,-82262.83499999999,-90940.905,-91097.685,-105367.36499999999,-40723.38,-70928.64
-88965.62999999999,-105050.7,-82243.665,-90927.495,-91105.73999999999,-105363.9,-40716.63,-70935.56999999999
-88923.69,-104997.825,-82191.95999999999,-90875.745,-91077.435,-105318.9,-40736.07,-70938.98999999999
-88860.64499999999,-104932.26,-82139.895,-90830.205,-91052.64,-105284.87999999999,-40755.15,-70941.19499999999
-88834.815,-104910.48,-82129.095,-90824.265,-91046.925,-105279.61499999999,-40754.79,-70935.12
-88849.44,-104925.19499999999,-82150.515,-90844.83,-91055.745,-105286.76999999999,-40721.22,-70920.09
-88842.64499999999,-104907.19499999999,-82145.06999999999,-90836.45999999999,-91038.105,-105263.09999999999,-40691.52,-70894.08
-88854.03,-104909.53499999999,-82152.495,-90839.47499999999,-91024.73999999999,-105248.79,-40642.92,-70866.22499999999
-88916.22,-104959.53,-82171.53,-90849.285,-91016.28,-105240.06,-40582.125,-70843.995
-88962.56999999999,-104995.44,-82184.31,-90860.535,-91024.29,-105245.235,-40528.08,-70836.84
-88937.19,-104956.37999999999,-82177.83,-90856.34999999999,-91032.75,-105251.58,-40507.83,-70832.83499999999
-88865.14499999999,-104893.69499999999,-82148.4,-90822.825,-91018.34999999999,-105230.97,-40515.479999999996,-70826.44499999999
-88841.83499999999,-104923.53,-82147.455,-90811.305,-91017.98999999999,-105228.54,-40513.814999999995,-70825.14
-88813.44,-104906.745,-82096.73999999999,-90771.525,-90995.31,-105202.39499999999,-40527.135,-70816.23
-88807.545,-104896.44,-82086.795,-90767.295,-90990.62999999999,-105200.28,-40523.76,-70804.62
-88809.25499999999,-104895.26999999999,-82097.055,-90774.62999999999,-90984.555,-105196.545,-40495.32,-70781.04
-88836.39,-104920.83,-82118.025,-90793.8,-90987.97499999999,-105203.205,-40440.869999999995,-70744.59
-88850.06999999999,-104937.795,-82134.81,-90808.425,-90990.855,-105206.53499999999,-40385.97,-70710.255
-88870.905,-104958.98999999999,-82153.26,-90824.67,-90997.965,-105213.915,-40329.0,-70680.42
-88906.86,-104983.155,-82182.33,-90852.345,-91021.095,-105233.04,-40268.34,-70660.485
-88894.70999999999,-104945.84999999999,-82161.045,-90835.875,-91018.845,-105214.14,-40253.085,-70648.2
-88905.465,-104943.105,-82163.7,-90833.89499999999,-91028.87999999999,-105200.955,-40241.205,-70645.05
-88883.325,-104899.275,-82115.055,-90785.06999999999,-91015.875,-105150.59999999999,-40260.689999999995,-70640.91
-88835.04,-104854.76999999999,-82080.09,-90751.815,-91000.98,-105115.185,-40275.81,-70634.06999999999
-88805.61,-104870.565,-82088.775,-90751.635,-90997.245,-105111.18,-40275.36,-70618.545
-88785.72,-104872.095,-82094.12999999999,-90755.73,-91000.305,-105116.94,-40260.24,-70596.63
-88809.61499999999,-104935.635,-82115.37,-90763.515,-91005.93,-105119.055,-40221.09,-70571.83499999999
-88821.18,-104943.78,-82105.605,-90749.06999999999,-90985.185,-105095.655,-40186.755,-70542.18
-88839.98999999999,-104929.83,-82123.73999999999,-90776.97,-91009.89,-105126.705,-40139.46,-70520.44499999999
-88827.61499999999,-104901.795,-82105.73999999999,-90764.28,-91000.26,-105115.05,-40119.885,-70500.59999999999
-88836.56999999999,-104892.48,-82099.89,-90765.045,-91004.08499999999,-105114.915,-40104.09,-70494.435
-88798.995,-104854.68,-82068.66,-90740.565,-90994.05,-105100.245,-40115.115,-70488.09
-88757.775,-104820.39,-82045.75499999999,-90717.66,-90984.64499999999,-105085.305,-40132.665,-70493.715
-88712.81999999999,-104770.44,-81997.2,-90663.03,-90938.925,-105027.61499999999,-40162.095,-70487.64
-88724.205,-104773.36499999999,-81999.81,-90667.53,-90930.69,-105019.73999999999,-40163.715,-70475.805
-88712.50499999999,-104792.89499999999,-82006.515,-90663.705,-90910.845,-105004.215,-40150.845,-70444.08
-88733.565,-104819.94,-82017.765,-90671.805,-90901.62,-105000.56999999999,-40115.97,-70421.4
-88728.84,-104810.58,-82016.19,-90673.965,-90889.01999999999,-104989.905,-40083.975,-70384.995
-88747.47,-104829.795,-82035.495,-90687.375,-90888.705,-104993.955,-40039.29,-70353.54
-88763.44499999999,-104853.555,-82059.84,-90705.06,-90905.44499999999,-105010.155,-40001.04,-70338.825
-88740.72,-104821.83,-82041.12,-90694.53,-90908.14499999999,-105009.39,-39995.82,-70327.62
-88732.34999999999,-104789.51999999999,-82018.215,-90678.78,-90906.795,-105001.73999999999,-40006.53,-70334.64
-88696.665,-104741.86499999999,-81979.02,-90643.815,-90889.965,-104980.995,-40033.619999999995,-70331.895
-88668.495,-104696.50499999999,-81934.65,-90601.73999999999,-90864.045,-104950.53,-40060.619999999995,-70332.705
-88676.325,-104703.75,-81937.08,-90601.01999999999,-90863.45999999999,-104953.095,-40064.76,-70330.5
-88659.09,-104715.09,-81947.79,-90608.44499999999,-90860.355,-104954.31,-40051.845,-70305.84
-88641.18,-104721.39,-81942.345,-90596.295,-90832.455,-104924.47499999999,-40035.465,-70274.06999999999
-88666.56,-104741.64,-81961.065,-90608.22,-90821.11499999999,-104918.4,-39994.604999999996,-70244.145
-88695.765,-104750.325,-81972.495,-90620.28,-90821.925,-104920.78499999999,-39953.744999999995,-70225.515
-88728.48,-104778.495,-81994.995,-90640.8,-90835.33499999999,-104934.015,-39912.345,-70215.075
-88739.775,-104814.81,-82003.995,-90642.64499999999,-90839.25,-104930.37,-39891.869999999995,-70209.94499999999
-88693.785,-104787.765,-81978.48,-90619.73999999999,-90832.905,-104916.28499999999,-39904.47,-70215.97499999999
-88615.89,-104697.18,-81930.285,-90579.42,-90817.875,-104890.995,-39941.325,-70229.06999999999
-88547.4,-104604.65999999999,-81855.045,-90513.62999999999,-90773.775,-104841.045,-39987.314999999995,-70233.93
-88523.45999999999,-104572.39499999999,-81826.33499999999,-90488.025,-90753.12,-104823.72,-40006.755,-70231.31999999999
-88506.72,-104622.165,-81840.285,-90485.595,-90741.19499999999,-104820.03,-39995.369999999995,-70208.505
-88538.355,-104672.87999999999,-81870.61499999999,-90497.295,-90731.16,-104818.14,-39963.195,-70181.685
