ch_0,ch_1,ch_2,ch_3,ch_4,ch_5,ch_6,ch_7
-36194.265,-53156.384999999995,-33355.53,-47357.505,-45633.96,-40308.345,-2857.095,-43081.74
-36160.83,-53100.494999999995,-33309.27,-47331.314999999995,-45798.119999999995,-40475.025,-2879.8199999999997,-43065.494999999995
-36127.665,-53068.095,-33289.38,-47309.58,-45916.515,-40472.415,-2951.865,-43040.744999999995
-36156.915,-53092.305,-33311.79,-47314.979999999996,-46007.28,-40276.215,-3058.56,-43074.585
-36087.479999999996,-53020.665,-33251.04,-47277.45,-46142.189999999995,-40231.845,-3202.83,-43017.119999999995
-36080.955,-53022.869999999995,-33248.565,-47276.145,-46202.67,-40305.42,-3321.27,-43000.47
-36141.03,-53079.165,-33288.84,-47297.7,-46092.104999999996,-40266.494999999995,-3378.33,-43053.345
-36177.57,-53121.465,-33335.1,-47363.085,-46027.979999999996,-40362.57,-3367.44,-43085.835
-36261.18,-53224.965,-33439.095,-47473.965,-45962.009999999995,-40481.01,-3283.9649999999997,-43145.595
-36393.075,-53388.99,-33597.494999999995,-47593.755,-45797.354999999996,-40452.975,-3165.21,-43254.134999999995
-36468.405,-53462.43,-33663.33,-47647.799999999996,-45741.555,-40495.994999999995,-3087.72,-43331.895
-36453.825,-53421.255,-33630.659999999996,-47635.784999999996,-45895.68,-40553.01,-3130.9649999999997,-43336.215
-36432.99,-53391.284999999996,-33612.03,-47633.04,-46008.045,-40615.38,-3208.41,-43324.515
-36421.515,-53377.29,-33607.08,-47625.165,-46078.74,-40601.205,-3321.4049999999997,-43323.255
-36378.0,-53312.265,-33536.115,-47560.994999999995,-46186.47,-40619.655,-3480.66,-43292.744999999995
-36392.534999999996,-53320.095,-33525.945,-47560.634999999995,-46236.465,-40738.455,-3603.24,-43289.369999999995
-36436.095,-53383.049999999996,-33594.795,-47626.335,-46155.015,-40740.39,-3649.23,-43323.884999999995
-36490.095,-53459.235,-33672.735,-47677.229999999996,-46085.445,-40607.729999999996,-3658.815,-43373.475
-36579.869999999995,-53565.704999999994,-33773.31,-47765.744999999995,-46026.314999999995,-40583.79,-3591.855,-43443.99
-36656.415,-53656.335,-33866.145,-47860.064999999995,-45930.33,-40684.59,-3469.3199999999997,-43513.29
-36690.659999999996,-53690.759999999995,-33901.92,-47904.39,-45918.854999999996,-40756.14,-3379.455,-43552.305
-36688.77,-53654.354999999996,-33866.865,-47889.854999999996,-46105.244999999995,-40826.88,-3404.0699999999997,-43565.895
-36691.92,-53653.14,-33875.865,-47911.365,-46255.365,-40876.515,-3466.89,-43575.479999999996
-36669.465,-53619.39,-33847.695,-47889.134999999995,-46356.795,-40892.939999999995,-3575.3849999999998,-43565.49
-36603.225,-53543.43,-33778.71,-47819.744999999995,-46482.795,-40881.104999999996,-3728.565,-43514.64
-36583.604999999996,-53528.49,-33768.045,-47802.195,-46536.03,-40836.465,-3862.44,-43500.195
-36638.729999999996,-53622.54,-33842.835,-47841.119999999995,-46435.634999999995,-40786.47,-3902.085,-43526.744999999995
-36709.604999999996,-53700.075,-33910.47,-47897.415,-46366.83,-40817.88,-3889.035,-43578.54
-36772.11,-53755.244999999995,-33966.81,-47964.104999999996,-46296.494999999995,-40872.735,-3826.7999999999997,-43639.29
-36870.165,-53843.895,-34045.56,-48050.145,-46158.119999999995,-40909.5,-3710.52,-43726.634999999995
-36933.975,-53910.81,-34115.67,-48125.88,-46127.52,-40980.104999999996,-3616.83,-43796.295
-36943.695,-53915.04,-34125.39,-48132.54,-46299.195,-41022.99,-3639.4649999999997,-43810.875
-36936.0,-53909.505,-34119.585,-48124.979999999996,-46423.53,-41034.825,-3710.205,-43803.045
-36901.89,-53866.619999999995,-34093.845,-48112.244999999995,-46515.104999999996,-41075.145,-3813.5249999999996,-43789.32
-36845.325,-53791.11,-34025.49,-48049.29,-46628.729999999996,-41077.439999999995,-3965.4449999999997,-43754.805
-36855.99,-53793.45,-34010.729999999996,-48040.965,-46676.43,-41143.455,-4088.475,-43753.005
-36896.715,-53850.689999999995,-34063.02,-48111.345,-46609.064999999995,-41296.32,-4111.92,-43775.415
-36966.689999999995,-53939.07,-34144.155,-48167.865,-46544.58,-41275.53,-4101.57,-43829.505
-37073.475,-54051.704999999994,-34248.24,-48235.905,-46453.814999999995,-41128.11,-4047.705,-43926.525
-37186.244999999995,-54180.494999999995,-34379.549999999996,-48357.63,-46312.29,-41051.88,-3934.665,-44031.42
-37216.979999999996,-54217.979999999996,-34436.295,-48441.015,-46286.595,-41213.205,-3831.165,-44070.39
-37200.104999999996,-54183.104999999996,-34397.955,-48398.895,-46437.075,-41250.825,-3860.46,-44062.965
-37190.97,-54161.865,-34372.395,-48377.115,-46548.134999999995,-41301.314999999995,-3924.495,-44054.595
-37165.725,-54127.305,-34349.445,-48372.255,-46641.104999999996,-41396.85,-4014.765,-44043.165
-37132.02,-54078.704999999994,-34295.805,-48319.56,-46770.03,-41355.54,-4160.97,-44017.74
-37165.32,-54120.329999999994,-34332.57,-48343.229999999996,-46828.665,-41245.47,-4290.525,-44042.49
-37180.575,-54141.03,-34355.025,-48370.14,-46735.47,-41274.18,-4346.73,-44062.064999999995
-37202.4,-54170.369999999995,-34392.6,-48410.189999999995,-46665.45,-41381.46,-4339.215,-44083.799999999996
-37276.695,-54271.215,-34498.53,-48497.085,-46599.119999999995,-41440.229999999996,-4261.68,-44142.659999999996
-37371.104999999996,-54379.755,-34600.409999999996,-48589.244999999995,-46478.34,-41374.89,-4152.915,-44227.305
-37439.865,-54459.494999999995,-34674.03,-48662.28,-46446.39,-41417.46,-4050.99,-44286.479999999996
-37476.54,-54452.204999999994,-34655.265,-48655.665,-46617.165,-41511.555,-4071.87,-44328.689999999995
-37463.49,-54411.75,-34607.97,-48624.57,-46750.409999999996,-41500.26,-4150.665,-44325.27
-37428.479999999996,-54373.545,-34578.63,-48607.38,-46850.085,-41554.575,-4245.57,-44302.005
-37398.915,-54338.85,-34550.01,-48571.604999999996,-46974.689999999995,-41551.83,-4384.215,-44279.82
-37409.13,-54360.18,-34575.84,-48595.409999999996,-47048.04,-41594.67,-4503.87,-44283.825
-37441.215,-54408.6,-34624.665,-48631.049999999996,-46968.75,-41597.505,-4555.215,-44311.455
-37486.439999999995,-54465.57,-34684.47,-48691.935,-46918.439999999995,-41714.82,-4539.915,-44352.36
-37546.29,-54540.63,-34757.325,-48769.695,-46872.405,-41744.115,-4473.764999999999,-44401.095
-37635.03,-54646.695,-34856.235,-48863.97,-46768.409999999996,-41662.125,-4362.345,-44472.33
-37724.805,-54722.475,-34927.244999999995,-48931.515,-46742.939999999995,-41661.09,-4269.285,-44562.375
-37687.814999999995,-54667.259999999995,-34886.385,-48896.729999999996,-46904.265,-41698.755,-4298.8949999999995,-44549.64
-37665.135,-54644.67,-34883.955,-48912.479999999996,-47039.445,-41776.965,-4359.78,-44538.39
-37633.005,-54593.145,-34831.665,-48872.7,-47127.869999999995,-41821.92,-4466.295,-44525.205
-37612.979999999996,-54544.905,-34765.47,-48805.515,-47242.215,-41791.77,-4609.889999999999,-44506.979999999996
-37631.295,-54572.534999999996,-34777.08,-48802.32,-47300.085,-41774.22,-4725.45,-44501.265
-37670.49,-54628.064999999995,-34818.975,-48812.354999999996,-47200.994999999995,-41717.924999999996,-4776.345,-44528.939999999995
-37723.365,-54701.64,-34901.415,-48889.35,-47133.045,-41754.645,-4770.405,-44574.615
-37762.244999999995,-54754.29,-34961.49,-48958.244999999995,-47076.299999999996,-41804.46,-4710.195,-44610.255
-37862.595,-54888.345,-35102.88,-49099.994999999995,-46980.674999999996,-41890.365,-4571.639999999999,-44693.595
-37930.814999999995,-54962.685,-35190.494999999995,-49199.4,-46955.61,-41969.43,-4472.82,-44766.36
-37924.56,-54919.215,-35149.68,-49183.875,-47123.64,-42036.299999999996,-4504.679999999999,-44781.93
-37897.875,-54879.93,-35109.72,-49149.314999999995,-47246.759999999995,-42048.674999999996,-4578.345,-44761.905
-37897.02,-54857.34,-35069.895,-49085.235,-47310.659999999996,-41999.85,-4685.445,-44765.28
-37869.165,-54813.645,-35028.0,-49038.345,-47410.74,-41974.74,-4833.2699999999995,-44751.42
-37841.445,-54797.939999999995,-35026.695,-49057.47,-47485.71,-41993.145,-4955.445,-44720.865
-37891.35,-54852.165,-35067.555,-49091.58,-47419.65,-42005.115,-5000.94,-44759.07
-37944.81,-54924.345,-35132.265,-49141.619999999995,-47373.57,-42038.145,-4991.49,-44804.07
-37986.93,-54968.13,-35173.665,-49169.88,-47310.705,-42108.345,-4930.74,-44841.78
-38052.81,-55057.454999999994,-35267.67,-49261.68,-47217.645,-42163.29,-4809.33,-44898.345
-38141.415,-55157.715,-35362.125,-49349.564999999995,-47202.299999999996,-42082.56,-4708.98,-44977.32
-38161.575,-55146.329999999994,-35353.89,-49356.674999999996,-47371.994999999995,-42104.115,-4725.63,-45010.89
-38117.88,-55090.845,-35302.095,-49310.865,-47493.494999999995,-42142.77,-4796.37,-44978.445
-38091.6,-55060.11,-35278.83,-49296.375,-47570.67,-42180.03,-4889.385,-44961.525
-38048.805,-55011.329999999994,-35239.275,-49273.83,-47695.86,-42232.185,-5019.345,-44927.1
-38068.784999999996,-55023.39,-35244.765,-49277.115,-47759.895,-42238.89,-5147.6849999999995,-44945.055
-38115.99,-55078.74,-35292.96,-49306.77,-47659.905,-42180.345,-5206.005,-44990.865
-38172.869999999995,-55168.92,-35384.174999999996,-49390.83,-47598.075,-42245.64,-5180.8949999999995,-45029.25
-38251.71,-55248.39,-35454.33,-49464.72,-47539.215,-42259.77,-5116.455,-45094.545
-38321.955,-55331.505,-35537.85,-49541.13,-47423.205,-42279.795,-5004.045,-45160.155
-38388.645,-55409.939999999995,-35620.29,-49616.415,-47385.18,-42379.784999999996,-4892.8949999999995,-45222.345
-38401.74,-55397.115,-35608.229999999996,-49607.505,-47535.479999999996,-42394.005,-4916.745,-45247.545
-38396.79,-55371.42,-35584.965,-49600.755,-47658.15,-42438.689999999995,-4987.08,-45248.805
-38378.79,-55343.52,-35554.59,-49573.08,-47735.505,-42472.665,-5085.99,-45239.58
-38318.04,-55267.965,-35483.534999999996,-49509.045,-47841.795,-42445.485,-5234.445,-45198.0
-38298.375,-55256.67,-35478.63,-49508.28,-47896.244999999995,-42456.015,-5364.45,-45176.939999999995
-38337.435,-55321.515,-35539.335,-49561.604999999996,-47806.604999999996,-42478.695,-5407.155,-45197.955
-38390.85,-55393.695,-35611.784999999996,-49626.854999999996,-47736.494999999995,-42510.735,-5396.4,-45243.9
-38495.43,-55505.835,-35710.38,-49701.555,-47664.72,-42527.52,-5334.21,-45337.229999999996
-38576.475,-55592.595,-35799.255,-49798.439999999995,-47552.895,-42526.26,-5230.17,-45414.99
-38634.795,-55644.884999999995,-35853.975,-49861.395,-47513.07,-42570.225,-5136.75,-45478.485
-38619.494999999995,-55611.72,-35828.955,-49849.92,-47664.27,-42640.155,-5159.7,-45478.979999999996
-38630.115,-55607.625,-35822.88,-49845.645,-47783.655,-42679.89,-5226.615,-45492.345
-38616.75,-55568.07,-35772.479999999996,-49795.064999999995,-47846.159999999996,-42702.39,-5329.665,-45487.575
-38552.805,-55499.939999999995,-35717.985,-49756.32,-47956.5,-42793.11,-5461.335,-45440.009999999995
-38547.27,-55503.854999999996,-35726.4,-49773.96,-48026.88,-42816.15,-5586.4349999999995,-45432.54
-38597.085,-55563.704999999994,-35773.47,-49802.534999999996,-47923.424999999996,-42668.369999999995,-5651.865,-45467.685
-38662.064999999995,-55637.145,-35838.405,-49851.09,-47831.04,-42618.555,-5652.405,-45520.29
-38732.22,-55729.079999999994,-35934.885,-49936.095,-47760.75,-42709.635,-5586.974999999999,-45582.255
-38785.994999999995,-55795.994999999995,-36007.155,-50020.604999999996,-47660.805,-42791.085,-5474.429999999999,-45635.49
-38851.244999999995,-55868.4,-36086.265,-50107.185,-47632.32,-42865.38,-5364.495,-45698.895
-38861.909999999996,-55861.65,-36078.615,-50090.715,-47753.415,-42814.395,-5391.315,-45714.24
-38850.075,-55835.28,-36057.825,-50085.854999999996,-47882.88,-42926.58,-5444.594999999999,-45708.615
-38793.195,-55767.15,-36002.43,-50048.145,-47974.545,-43056.765,-5537.835,-45672.165
-38774.205,-55727.505,-35950.005,-49993.515,-48098.924999999996,-43005.915,-5675.8949999999995,-45657.18
-38825.055,-55780.02,-35981.865,-49994.009999999995,-48141.99,-42873.659999999996,-5806.125,-45687.6
-38857.814999999995,-55839.195,-36048.555,-50040.945,-48027.42,-42787.35,-5862.375,-45713.25
-38887.244999999995,-55877.805,-36089.28,-50085.18,-47961.854999999996,-42847.424999999996,-5854.545,-45742.68
-38953.305,-55950.795,-36156.24,-50157.045,-47902.59,-42916.68,-5787.0,-45799.244999999995
-39032.685,-56056.77,-36269.055,-50268.375,-47782.53,-43066.305,-5658.974999999999,-45867.375
-39135.104999999996,-56154.195,-36359.955,-50354.28,-47737.89,-43123.86,-5555.16,-45967.59
-39159.36,-56156.49,-36360.494999999995,-50355.27,-47890.125,-43017.93,-5583.915,-45998.909999999996
-39114.314999999995,-56088.54,-36294.435,-50306.04,-48007.935,-43043.805,-5661.2699999999995,-45966.06
-39072.689999999995,-56047.59,-36262.71,-50285.88,-48085.604999999996,-43080.84,-5753.115,-45934.29
-39033.63,-55993.545,-36216.135,-50252.58,-48199.634999999995,-43092.99,-5888.655,-45907.155
-39020.939999999995,-55983.104999999996,-36213.39,-50249.43,-48265.92,-43112.7,-6019.38,-45897.299999999996
-39072.375,-56060.235,-36291.869999999995,-50305.905,-48192.795,-43134.705,-6058.755,-45938.52
-39105.405,-56090.25,-36312.345,-50330.025,-48144.24,-43171.064999999995,-6052.32,-45967.905
-39193.29,-56175.03,-36364.14,-50363.955,-48096.54,-43171.155,-5983.514999999999,-46032.705
-39297.645,-56306.564999999995,-36499.68,-50487.975,-48005.909999999996,-43177.95,-5855.804999999999,-46122.84
-39357.72,-56369.924999999996,-36567.63,-50558.445,-47980.89,-43209.494999999995,-5751.945,-46186.38
-39322.575,-56310.255,-36517.32,-50521.86,-48143.115,-43265.07,-5768.91,-46171.845
-39305.205,-56288.115,-36498.24,-50507.325,-48280.634999999995,-43283.025,-5826.6449999999995,-46158.659999999996
-39296.88,-56268.9,-36485.369999999995,-50505.479999999996,-48381.255,-43292.384999999995,-5916.15,-46164.195
-39240.225,-56185.965,-36403.29,-50436.045,-48496.68,-43291.755,-6066.63,-46130.939999999995
-39234.51,-56177.82,-36394.244999999995,-50428.799999999996,-48560.4,-43337.744999999995,-6192.315,-46114.604999999996
-39271.814999999995,-56232.0,-36439.695,-50457.689999999995,-48467.159999999996,-43283.88,-6242.94,-46136.07
-39325.005,-56308.095,-36520.335,-50541.119999999995,-48418.38,-43347.78,-6208.83,-46179.99
-39358.439999999995,-56356.604999999996,-36565.244999999995,-50574.78,-48366.09,-43399.395,-6146.594999999999,-46211.354999999996
-39440.744999999995,-56457.765,-36667.034999999996,-50668.155,-48272.895,-43407.45,-6026.04,-46280.43
-39519.9,-56538.09,-36748.17,-50755.545,-48255.075,-43414.064999999995,-5916.42,-46354.185
-39493.08,-56488.68,-36704.385,-50716.89,-48419.145,-43420.59,-5936.04,-46346.49
-39486.42,-56472.57,-36686.295,-50699.744999999995,-48565.17,-43461.585,-5995.53,-46342.35
-39451.994999999995,-56414.52,-36628.56,-50657.4,-48660.21,-43491.555,-6093.945,-46322.729999999996
-39367.845,-56323.575,-36559.08,-50623.515,-48804.525,-43595.1,-6213.69,-46256.58
-39357.09,-56311.92,-36535.14,-50580.225,-48882.78,-43589.924999999996,-6340.905,-46241.82
-39420.45,-56397.645,-36609.39,-50620.229999999996,-48791.655,-43459.965,-6389.415,-46292.58
-39478.725,-56485.845,-36707.58,-50718.195,-48723.84,-43390.125,-6372.179999999999,-46331.729999999996
-39521.835,-56542.32,-36763.695,-50767.335,-48667.77,-43459.29,-6303.195,-46366.11
-39595.994999999995,-56625.795,-36843.525,-50841.18,-48556.305,-43515.36,-6187.905,-46435.5
