ch_0,ch_1,ch_2,ch_3,ch_4,ch_5,ch_6,ch_7
-8307.72,-17059.14,1691.595,-19872.27,-12910.769999999999,-34999.11,-8308.395,1321.6499999999999
-8357.22,-17162.46,1676.835,-19860.614999999998,-12734.055,-34993.979999999996,-8266.68,1417.185
-8795.699999999999,-17677.395,1306.26,-20009.114999999998,-12534.84,-34781.354999999996,-8101.889999999999,1147.77
-9034.695,-17923.545,1123.335,-19952.774999999998,-12251.34,-34417.215,-8086.41,869.895
-8957.475,-17797.23,1281.69,-19855.035,-12265.74,-34408.575,-8119.755,927.81
-8746.02,-17594.774999999998,1531.08,-19797.344999999998,-12355.02,-34515.494999999995,-8145.045,1205.5049999999999
-8755.83,-17619.524999999998,1557.405,-19850.67,-12425.445,-34526.205,-8078.04,1236.4199999999998
-8835.885,-17757.989999999998,1380.69,-19907.954999999998,-12414.779999999999,-34466.13,-8015.355,1158.975
-8840.43,-17811.675,1234.7549999999999,-19926.045,-12404.97,-34427.295,-7988.355,1154.2949999999998
-8826.885,-17814.42,1151.7749999999999,-20014.739999999998,-12491.414999999999,-34450.83,-7972.38,1168.605
-8836.02,-17796.915,1267.155,-20063.79,-12590.82,-34512.885,-7991.009999999999,1165.995
-8857.619999999999,-17783.235,1349.865,-20047.005,-12596.49,-34539.705,-8020.889999999999,1136.115
-8851.635,-17823.375,1328.805,-19945.079999999998,-12500.46,-34501.815,-8005.365,1150.695
-8842.815,-17830.305,1272.375,-19925.594999999998,-12502.215,-34506.135,-8011.349999999999,1156.95
-8840.88,-17824.545,1222.5149999999999,-19990.98,-12521.744999999999,-34477.065,-7981.38,1169.9099999999999
-8908.695,-18008.64,1053.675,-20067.57,-12463.289999999999,-34355.744999999995,-7880.355,1190.8799999999999
-8897.625,-17941.68,939.9599999999999,-20025.27,-12387.869999999999,-34312.77,-7869.69,1184.76
-8866.619999999999,-17739.27,1226.205,-19831.995,-12354.39,-34375.545,-7936.11,1159.29
-8987.715,-17794.35,1533.105,-19653.704999999998,-12292.064999999999,-34377.659999999996,-7963.29,1101.06
-8916.705,-17740.17,1566.36,-19652.355,-12326.4,-34402.725,-7963.2,1131.6599999999999
-8692.83,-17521.38,1433.2949999999998,-19727.82,-12383.55,-34432.2,-7945.11,1219.365
-8605.035,-17345.385,1398.33,-19757.204999999998,-12398.939999999999,-34447.59,-7959.42,1243.62
-8562.24,-17261.505,1387.08,-19836.315,-12502.26,-34516.979999999996,-7992.045,1262.745
-8579.744999999999,-17261.954999999998,1484.1,-19825.739999999998,-12543.84,-34556.58,-8019.405,1229.085
-8657.46,-17363.25,1657.1699999999998,-19774.17,-12563.955,-34600.365,-8034.255,1177.875
-8808.345,-17637.75,1564.29,-19900.665,-12637.664999999999,-34588.395,-7936.245,1142.415
-8988.119999999999,-17874.495,1220.805,-20169.945,-12844.664999999999,-34618.815,-7813.665,1056.375
-8960.355,-17727.66,1197.945,-20181.195,-13087.215,-34735.32,-7877.295,951.3449999999999
-8634.06,-17260.11,1638.135,-19937.79,-13196.609999999999,-34871.58,-8000.73,1047.42
-8239.77,-16878.825,1979.3249999999998,-19819.26,-13114.845,-35038.755,-8181.09,1325.97
-8173.665,-16937.774999999998,1841.6699999999998,-19863.54,-12947.49,-35071.29,-8203.365,1405.125
-8233.83,-17080.605,1600.02,-19814.265,-12581.82,-34825.32,-8207.595,1363.4099999999999
-8425.8,-17391.285,1335.87,-19751.67,-12169.98,-34405.65,-8134.605,1403.955
-8689.365,-17667.135,1345.1399999999999,-19840.905,-12254.895,-34311.465,-7888.7699999999995,1394.6399999999999
-8839.44,-17686.17,1663.0649999999998,-19885.05,-12476.34,-34387.74,-7881.48,1256.1299999999999
-8881.244999999999,-17833.815,1610.28,-19964.204999999998,-12451.23,-34311.735,-7848.045,1205.955
-8789.94,-17889.614999999998,1189.845,-19985.715,-12321.63,-34236.945,-7832.115,1224.585
-8679.6,-17727.885,907.3349999999999,-19907.864999999998,-12265.38,-34315.515,-7901.73,1271.8799999999999
-8661.42,-17593.2,1072.215,-19801.395,-12252.824999999999,-34390.44,-7961.8949999999995,1270.935
-8730.045,-17589.69,1318.2749999999999,-19789.92,-12301.74,-34372.034999999996,-7927.785,1210.1399999999999
-8737.605,-17620.425,1472.5349999999999,-19834.649999999998,-12425.58,-34396.065,-7943.94,1196.1
-8750.565,-17713.89,1605.06,-19889.864999999998,-12538.35,-34446.825,-7940.295,1208.07
-8805.465,-17879.805,1596.51,-20021.13,-12603.779999999999,-34415.1,-7879.905,1228.4099999999999
-8824.14,-18041.13,1236.375,-20155.5,-12566.925,-34349.58,-7825.005,1282.905
-8772.705,-18045.45,763.605,-20116.755,-12371.535,-34249.455,-7793.46,1296.18
-8762.49,-17860.454999999998,845.505,-19911.78,-12229.02,-34237.485,-7853.49,1234.71
-8849.789999999999,-17779.725,1235.8799999999999,-19631.61,-12144.375,-34274.52,-7892.865,1194.75
-8925.93,-17837.684999999998,1467.8999999999999,-19557.495,-12206.835,-34324.515,-7874.639999999999,1207.53
-8795.025,-17711.954999999998,1380.5549999999998,-19750.454999999998,-12344.355,-34335.54,-7822.17,1281.4199999999998
-8647.605,-17480.43,1455.345,-19822.995,-12434.58,-34391.744999999995,-7885.62,1264.4099999999999
-8540.055,-17293.545,1652.715,-19795.545,-12505.814999999999,-34473.869999999995,-7942.815,1251.81
-8532.09,-17272.17,1761.075,-19814.265,-12565.395,-34508.61,-7916.445,1273.86
-8630.055,-17331.345,1741.1399999999999,-19858.094999999998,-12580.154999999999,-34517.88,-7917.48,1220.985
-8650.98,-17403.165,1602.3149999999998,-19910.565,-12590.82,-34540.74,-7957.53,1226.835
-8689.23,-17593.065,1325.52,-19835.325,-12394.8,-34371.854999999996,-7868.025,1234.08
-8752.275,-17664.66,1183.725,-19770.39,-12354.029999999999,-34258.994999999995,-7725.78,1266.12
-8882.145,-17663.76,1254.51,-19913.94,-12781.215,-34488.45,-7690.094999999999,1127.61
-8847.494999999999,-17537.445,1463.895,-19927.53,-12937.095,-34638.345,-7814.025,1030.68
-8590.095,-17246.295,1745.5049999999999,-19816.92,-12885.48,-34649.685,-7942.094999999999,1132.965
-8287.244999999999,-16983.405,1950.3,-19680.84,-12768.255,-34704.99,-7952.264999999999,1345.86
-8065.889999999999,-16833.825,2003.085,-19597.68,-12762.18,-34730.595,-8047.755,1509.03
-7897.95,-16708.14,2115.09,-19604.43,-13082.4,-34868.79,-8219.385,1664.0549999999998
-8026.5599999999995,-16927.065,1898.5049999999999,-19902.555,-13341.644999999999,-35013.015,-7971.389999999999,1779.48
-8359.605,-17304.885,1609.7849999999999,-20107.305,-13210.605,-34839.18,-7624.485,1657.485
-8559.0,-17478.54,1514.97,-20036.745,-12846.015,-34714.08,-7618.455,1438.56
-8644.635,-17571.915,1430.955,-19834.245,-12294.449999999999,-34422.345,-7896.42,1248.03
-8648.145,-17634.555,1313.1,-19682.415,-11867.76,-34123.365,-7970.355,1273.68
-8776.035,-17768.34,1259.685,-19668.6,-11767.095,-34010.64,-7922.205,1229.5349999999999
-8872.244999999999,-17826.075,1574.235,-19615.995,-11959.74,-34116.705,-7935.929999999999,1176.705
-8851.275,-17787.105,1717.02,-19645.829999999998,-12130.199999999999,-34235.82,-7906.094999999999,1171.215
-8554.05,-17571.645,1700.1,-19643.489999999998,-12120.345,-34197.975,-7819.785,1364.76
-8612.1,-17727.03,1207.395,-19853.64,-12271.23,-34176.915,-7592.13,1474.245
-9114.119999999999,-18157.32,993.78,-20117.07,-12619.17,-34243.695,-7390.665,1264.95
-9258.21,-18218.34,980.91,-20218.68,-12735.359999999999,-34271.415,-7402.049999999999,1040.22
-8735.085,-17637.3,1352.7,-19922.67,-12418.74,-34163.415,-7714.844999999999,1205.055
-8392.815,-17402.175,1432.98,-19834.649999999998,-12175.65,-34172.145,-7993.665,1473.2549999999999
-8449.83,-17650.53,1169.235,-19915.695,-12066.795,-34180.965,-7915.634999999999,1539.135
-8581.725,-17728.02,1239.57,-19768.005,-12004.289999999999,-34133.4,-7846.605,1414.71
-8592.795,-17542.17,1447.065,-19599.795,-12006.045,-34167.915,-7880.219999999999,1323.72
-8478.675,-17263.44,1486.845,-19578.195,-12061.305,-34210.305,-7889.4,1308.555
-8395.695,-17081.19,1664.1,-19525.995,-12152.34,-34309.215,-7946.505,1299.195
-8453.43,-17109.945,2143.755,-19424.295,-12271.23,-34420.095,-7964.549999999999,1385.325
-8683.92,-17611.38,2156.085,-19552.86,-12345.795,-34376.4,-7840.215,1427.2649999999999
-8720.235,-17818.245,1735.83,-19778.445,-12428.73,-34318.35,-7672.455,1445.985
-8594.414999999999,-17568.405,1242.405,-19880.82,-12532.5,-34301.924999999996,-7560.045,1470.2849999999999
-8556.615,-17397.63,1209.195,-19777.094999999998,-12476.52,-34347.6,-7662.014999999999,1395.495
-8643.33,-17559.315,1431.99,-19688.715,-12438.945,-34385.174999999996,-7714.44,1343.61
-8833.68,-17906.625,1577.475,-19629.945,-12403.755,-34371.585,-7735.094999999999,1365.7949999999998
-8926.695,-18094.454999999998,1383.345,-19739.565,-12465.72,-34317.045,-7643.205,1367.955
-8742.824999999999,-17765.64,1227.195,-19909.71,-12645.18,-34336.935,-7548.255,1367.5049999999999
-8463.105,-17225.415,1504.395,-19864.755,-12861.269999999999,-34486.83,-7690.724999999999,1343.565
-8362.035,-16945.605,1790.46,-19882.665,-13239.855,-34680.78,-7769.565,1282.77
-8505.765,-17039.835,1765.3049999999998,-20083.23,-13644.855,-35037.36,-7784.19,1236.375
-8442.855,-17026.065,1872.1799999999998,-20147.265,-13809.015,-35339.58,-7912.08,1373.5349999999999
-8294.895,-16959.69,1962.855,-19991.565,-13398.795,-35228.07,-7913.07,1481.445
-8381.43,-17173.665,1792.845,-19752.524999999998,-12436.695,-34677.54,-7909.155,1388.925
-8571.69,-17532.27,1512.0449999999998,-19586.7,-11679.164999999999,-34053.119999999995,-7861.679999999999,1271.565
-8621.685,-17624.16,1489.725,-19617.03,-11752.74,-33968.97,-7888.815,1293.57
-8504.369999999999,-17510.399999999998,1579.635,-19590.344999999998,-11870.73,-33996.869999999995,-7866.315,1514.385
-8343.585,-17248.05,1594.71,-19498.364999999998,-11930.13,-34089.119999999995,-7839.179999999999,1542.2849999999999
-8229.195,-17042.04,1622.52,-19452.329999999998,-11956.59,-34221.869999999995,-7880.58,1573.7849999999999
-8328.555,-17184.915,1651.095,-19524.69,-12017.295,-34237.979999999996,-7843.724999999999,1559.565
-8469.855,-17380.62,1653.2549999999999,-19618.605,-12156.029999999999,-34245.09,-7831.844999999999,1444.4099999999999
-8568.494999999999,-17538.255,1789.02,-19668.69,-12333.195,-34343.955,-7835.264999999999,1419.48
-8717.175,-17994.51,1918.08,-19687.005,-12367.395,-34300.35,-7697.205,1485.72
-8857.215,-18365.805,1438.29,-19899.315,-12366.72,-34167.24,-7513.74,1498.05
-8841.914999999999,-18157.815,815.31,-20009.204999999998,-12133.17,-33990.39,-7463.295,1436.76
-8710.92,-17872.425,816.48,-19790.325,-11909.295,-33960.375,-7578.674999999999,1379.745
-8608.77,-17675.1,1271.61,-19561.23,-11868.119999999999,-34049.295,-7719.389999999999,1371.645
-8617.725,-17581.995,1527.7949999999998,-19608.39,-12057.66,-34181.505,-7770.599999999999,1387.935
-8646.795,-17568.045,1533.51,-19694.52,-12171.555,-34164.494999999995,-7673.849999999999,1415.34
-8682.93,-17572.095,1614.1499999999999,-19627.829999999998,-12149.955,-34157.159999999996,-7653.554999999999,1386.6299999999999
-8679.24,-17546.04,1701.585,-19511.64,-12040.785,-34111.215,-7669.215,1353.24
-8503.875,-17311.86,1691.01,-19549.755,-12084.39,-34150.049999999996,-7722.63,1398.735
-8375.13,-17157.915,1810.26,-19616.04,-12225.96,-34237.89,-7763.715,1464.7949999999998
-8546.94,-17380.215,1951.875,-19573.335,-12289.05,-34275.6,-7740.2699999999995,1448.685
-8676.855,-17535.149999999998,1811.07,-19639.44,-12370.725,-34280.865,-7650.09,1462.0049999999999
-8908.74,-17708.94,1341.72,-19909.62,-12618.449999999999,-34317.0,-7360.245,1353.87
-8912.835,-17554.905,1215.18,-20054.385,-12941.369999999999,-34471.305,-7297.875,1075.0049999999999
-8516.654999999999,-17049.6,1468.26,-19942.515,-13072.904999999999,-34614.18,-7479.855,1150.02
-8060.625,-16597.665,1883.2949999999998,-19741.545,-13233.689999999999,-34707.104999999996,-7749.495,1533.4199999999998
-7832.295,-16396.29,2133.27,-19697.715,-13546.215,-35109.63,-8202.465,1684.395
-7811.82,-16430.805,2213.235,-19664.19,-13443.48,-35182.89,-8175.69,1675.485
-7722.495,-16336.08,2374.065,-19536.03,-13120.289999999999,-35085.645,-8194.86,1656.135
-7686.224999999999,-16457.67,2294.37,-19475.46,-12536.055,-34938.045,-8121.375,1860.03
-8046.63,-17029.44,1940.985,-19487.655,-11788.965,-34381.755,-7783.74,1855.98
-8505.404999999999,-17598.69,1707.615,-19534.14,-11464.154999999999,-34015.409999999996,-7735.545,1612.53
-8691.975,-17811.09,1671.885,-19499.805,-11372.939999999999,-33822.18,-7702.514999999999,1474.605
-8711.145,-17800.92,1477.935,-19527.03,-11528.189999999999,-33744.825,-7582.815,1411.56
-8685.855,-17831.114999999998,1152.18,-19604.295,-11735.189999999999,-33827.534999999996,-7561.9349999999995,1436.04
-8684.324999999999,-17783.1,1021.275,-19738.53,-11996.505,-33896.52,-7454.384999999999,1474.605
-8824.725,-17713.079999999998,1076.085,-19905.614999999998,-12480.885,-34099.83,-7414.965,1251.495
-8871.84,-17597.88,1181.97,-19953.989999999998,-12722.355,-34276.545,-7450.65,1054.935
-8418.375,-17118.945,1762.965,-19652.445,-12569.939999999999,-34319.655,-7577.91,1298.1599999999999
-8023.7699999999995,-16823.024999999998,2157.705,-19485.45,-12368.43,-34480.395,-7802.775,1763.01
-8223.48,-17153.235,2110.725,-19592.594999999998,-12233.609999999999,-34452.27,-7783.605,1732.6799999999998
-8507.025,-17700.614999999998,2040.57,-19629.045,-12063.195,-34193.295,-7686.99,1652.355
-8688.914999999999,-18203.13,1363.995,-19923.434999999998,-12059.279999999999,-34046.415,-7548.48,1626.12
-8657.775,-18196.965,728.595,-19933.695,-11945.25,-33907.905,-7451.235,1599.345
-8579.43,-17786.385,875.88,-19626.21,-11848.545,-33921.72,-7578.495,1557.675
-8487.855,-17338.23,1389.5549999999998,-19470.645,-11977.38,-34143.165,-7711.514999999999,1533.69
-8690.985,-17643.915,1786.8149999999998,-19391.715,-12039.75,-34141.229999999996,-7571.115,1442.97
-8972.145,-18184.184999999998,1894.455,-19382.805,-11983.949999999999,-33988.14,-7474.094999999999,1394.9099999999999
-8900.595,-17960.579999999998,1622.655,-19592.684999999998,-12059.055,-33985.485,-7475.625,1409.76
-8572.59,-17463.735,1461.51,-19755.719999999998,-12236.22,-34160.67,-7580.34,1437.075
-8363.475,-17122.77,1440.315,-19715.489999999998,-12333.24,-34281.72,-7715.474999999999,1407.96
-8192.744999999999,-16787.34,1716.9299999999998,-19608.57,-12407.085,-34341.795,-7855.83,1437.57
-8064.45,-16758.54,2101.5,-19523.969999999998,-12376.395,-34360.965,-7878.78,1618.335
-8108.955,-17080.649999999998,1930.05,-19630.62,-12398.58,-34427.79,-7750.755,1728.585
-8248.59,-17248.364999999998,1484.19,-19759.23,-12354.615,-34386.93,-7676.505,1656.945
