ch_0,ch_1,ch_2,ch_3,ch_4,ch_5,ch_6,ch_7
-13804.064999999999,-44450.685,4617.135,9849.645,30581.324999999997,-13245.84,1963.53,-249.66
-13808.564999999999,-44450.729999999996,4621.545,9859.41,30593.204999999998,-13234.005,1968.345,-250.01999999999998
-13805.324999999999,-44453.835,4618.755,9859.095,30591.27,-13238.369999999999,1965.5549999999998,-248.13
-13797.72,-44448.479999999996,4622.22,9857.385,30583.89,-13251.015,1959.885,-245.745
-13782.33,-44434.305,4611.735,9839.34,30561.48,-13278.51,1944.1799999999998,-244.98
-13792.814999999999,-44449.02,4600.125,9831.914999999999,30558.6,-13279.005,1944.405,-249.20999999999998
-13831.515,-44491.365,4589.054999999999,9837.494999999999,30577.41,-13247.55,1974.735,-253.755
-13828.005,-44478.045,4595.355,9838.529999999999,30574.53,-13255.109999999999,1974.735,-254.07
-13817.205,-44457.119999999995,4612.005,9856.215,30592.079999999998,-13246.92,1963.3049999999998,-255.87
-13802.984999999999,-44440.11,4624.92,9868.005,30601.98,-13244.894999999999,1960.11,-245.745
-13802.22,-44446.409999999996,4614.21,9858.734999999999,30591.495,-13252.41,1960.3799999999999,-243.35999999999999
-13817.025,-44464.814999999995,4592.745,9838.17,30573.405,-13261.14,1956.4199999999998,-254.20499999999998
-13818.195,-44460.494999999995,4596.21,9844.02,30583.62,-13246.425,1959.7949999999998,-256.365
-13823.64,-44468.145,4584.195,9831.24,30573.27,-13249.125,1959.345,-259.38
-13819.095,-44465.534999999996,4581.2699999999995,9827.324999999999,30569.129999999997,-13255.154999999999,1957.905,-254.475
-13821.705,-44471.43,4572.675,9821.115,30565.395,-13262.49,1953.81,-256.09499999999997
-13836.24,-44483.22,4566.014999999999,9817.65,30564.449999999997,-13263.93,1946.6999999999998,-266.445
-13844.519999999999,-44481.78,4569.885,9822.105,30569.625,-13260.33,1943.235,-273.015
-13842.945,-44484.03,4561.92,9813.465,30562.245,-13266.539999999999,1947.33,-268.83
-13826.385,-44468.28,4563.72,9809.955,30555.045,-13278.779999999999,1948.185,-259.065
-13809.105,-44443.17,4580.82,9819.404999999999,30556.71,-13285.394999999999,1942.9199999999998,-252.855
-13819.904999999999,-44447.85,4591.17,9832.005,30567.87,-13279.5,1938.8249999999998,-261.855
-13833.494999999999,-44466.93,4583.34,9836.55,30580.695,-13261.23,1949.895,-262.62
-13838.445,-44478.494999999995,4573.53,9835.74,30585.329999999998,-13253.76,1957.635,-259.065
-13816.215,-44450.369999999995,4583.07,9834.885,30579.66,-13264.244999999999,1957.4099999999999,-247.14
-13815.765,-44456.715,4566.915,9818.279999999999,30563.594999999998,-13279.994999999999,1949.445,-250.01999999999998
-13817.654999999999,-44462.655,4559.13,9815.22,30565.035,-13277.564999999999,1951.11,-249.39
-13817.25,-44455.14,4557.51,9809.19,30559.905,-13284.314999999999,1943.1899999999998,-253.035
-13819.005,-44452.259999999995,4552.695,9801.404999999999,30553.065,-13292.414999999999,1936.7549999999999,-257.085
-13840.83,-44489.97,4525.11,9786.285,30546.405,-13292.144999999999,1943.3249999999998,-262.71
-13841.595,-44484.03,4532.535,9793.98,30553.245,-13286.609999999999,1948.0049999999999,-260.09999999999997
-13830.615,-44461.755,4549.86,9800.279999999999,30549.285,-13299.119999999999,1936.53,-259.02
-13824.855,-44443.845,4556.025,9800.055,30545.145,-13307.13,1926.585,-262.8
-13828.949999999999,-44458.515,4547.385,9801.539999999999,30550.454999999998,-13301.055,1925.595,-265.09499999999997
-13862.699999999999,-44533.665,4517.28,9797.49,30559.23,-13282.605,1941.345,-269.865
-13869.045,-44535.465,4520.61,9795.15,30557.699999999997,-13282.064999999999,1946.4299999999998,-269.82
-13850.414999999999,-44486.82,4532.8949999999995,9795.779999999999,30552.93,-13291.695,1940.2649999999999,-266.895
-13849.83,-44477.64,4539.15,9803.16,30560.355,-13286.43,1941.03,-266.895
-13849.47,-44474.715,4542.21,9800.55,30552.795,-13296.285,1935.855,-268.46999999999997
-13842.09,-44468.729999999996,4536.585,9792.135,30543.344999999998,-13306.994999999999,1930.05,-266.715
-13837.904999999999,-44466.165,4534.65,9789.255,30541.454999999998,-13308.975,1929.4199999999998,-264.465
-13852.664999999999,-44478.63,4528.125,9784.8,30538.395,-13310.234999999999,1927.53,-273.42
-13851.135,-44471.07,4528.62,9782.595,30535.11,-13314.195,1929.195,-272.205
-13855.095,-44487.45,4524.21,9790.605,30550.274999999998,-13299.48,1934.28,-269.82
-13860.765,-44500.049999999996,4520.115,9794.43,30558.78,-13292.01,1938.4199999999998,-268.28999999999996
-13863.285,-44498.88,4514.085,9786.555,30552.57,-13295.654999999999,1934.9099999999999,-271.62
-13861.439999999999,-44487.225,4518.135,9785.609999999999,30549.329999999998,-13300.965,1933.02,-272.88
-13866.57,-44488.755,4514.445,9780.164999999999,30544.11,-13308.255,1927.3049999999998,-277.74
-13865.13,-44484.03,4511.79,9774.585,30538.079999999998,-13313.609999999999,1923.705,-279.135
-13864.994999999999,-44487.27,4508.28,9771.255,30534.57,-13318.289999999999,1919.25,-280.17
-13867.289999999999,-44500.455,4498.245,9766.98,30532.995,-13320.99,1917.4499999999998,-281.115
-13859.189999999999,-44499.195,4494.51,9763.83,30531.645,-13322.295,1922.1299999999999,-272.52
-13852.619999999999,-44477.235,4499.235,9762.164999999999,30529.035,-13326.885,1920.87,-270.63
-13847.49,-44467.335,4502.925,9764.369999999999,30529.934999999998,-13327.019999999999,1919.07,-270.045
-13855.635,-44475.884999999995,4499.01,9764.414999999999,30530.475,-13325.355,1916.9099999999999,-274.32
-13872.734999999999,-44500.409999999996,4490.325,9762.615,30530.565,-13323.6,1918.62,-279.945
-13879.125,-44503.02,4495.995,9774.045,30549.6,-13301.414999999999,1931.445,-277.92
-13874.355,-44495.28,4493.835,9768.195,30543.434999999998,-13308.615,1929.96,-276.48
-13860.63,-44482.455,4495.815,9765.27,30536.235,-13319.414999999999,1925.28,-270.405
-13863.24,-44485.424999999996,4489.605,9756.99,30525.164999999997,-13331.88,1919.115,-274.05
-13869.855,-44494.02,4481.054999999999,9752.265,30520.934999999998,-13337.144999999999,1916.3249999999998,-278.775
-13873.994999999999,-44497.575,4483.215,9759.33,30529.71,-13328.189999999999,1917.99,-280.03499999999997
-13872.6,-44490.015,4488.974999999999,9760.185,30528.135,-13332.689999999999,1912.185,-282.465
-13859.1,-44484.479999999996,4486.139999999999,9754.154999999999,30519.045,-13346.369999999999,1912.23,-273.06
-13846.365,-44475.795,4484.97,9750.645,30514.41,-13354.515,1915.155,-262.89
-13843.035,-44457.299999999996,4492.53,9751.365,30513.465,-13357.755,1910.1599999999999,-264.555
-13848.93,-44474.759999999995,4468.23,9731.07,30501.405,-13360.32,1913.085,-265.32
-13889.564999999999,-44520.57,4443.255,9724.005,30511.485,-13335.705,1918.845,-283.68
-13890.6,-44518.32,4441.32,9725.895,30516.84,-13328.865,1922.355,-282.51
-13893.164999999999,-44529.93,4432.679999999999,9727.335,30521.295,-13326.84,1926.135,-280.125
-13903.154999999999,-44544.15,4442.22,9742.68,30530.699999999997,-13329.135,1926.36,-283.005
-13904.369999999999,-44524.395,4469.76,9767.699999999999,30547.17,-13324.5,1917.27,-289.755
-13887.72,-44495.1,4485.42,9770.31,30544.379999999997,-13333.994999999999,1905.705,-285.705
-13878.135,-44477.415,4486.095,9762.93,30538.844999999998,-13332.96,1905.12,-281.745
-13877.234999999999,-44484.119999999995,4471.425,9744.795,30521.835,-13338.494999999999,1917.6299999999999,-275.49
-13889.88,-44500.905,4454.82,9727.47,30503.52,-13356.314999999999,1916.0549999999998,-283.815
-13882.32,-44495.865,4461.974999999999,9737.505,30513.465,-13355.73,1915.11,-277.92
-13874.49,-44484.435,4462.875,9737.505,30514.635,-13354.199999999999,1908.54,-276.705
-13869.9,-44482.229999999996,4449.69,9722.115,30501.629999999997,-13355.73,1904.1299999999999,-277.02
-13882.5,-44500.68,4431.735,9705.285,30486.42,-13367.475,1894.995,-287.505
-13885.244999999999,-44487.945,4454.37,9731.295,30512.745,-13348.755,1898.28,-289.125
-13893.345,-44504.28,4448.205,9733.77,30519.585,-13345.605,1898.9099999999999,-291.96
-13908.105,-44521.29,4446.45,9742.095,30535.695,-13323.24,1916.0549999999998,-288.85499999999996
-13901.445,-44501.265,4462.245,9755.595,30548.43,-13309.74,1924.47,-282.555
-13891.095,-44492.13,4461.929999999999,9752.355,30543.254999999997,-13318.605,1920.645,-279.09
-13898.654999999999,-44508.555,4436.325,9724.859999999999,30514.184999999998,-13349.789999999999,1909.0349999999999,-286.02
-13898.25,-44510.265,4428.945,9714.779999999999,30503.204999999998,-13362.164999999999,1905.345,-285.255
-13892.355,-44497.575,4433.445,9716.445,30503.655,-13366.439999999999,1898.01,-286.965
-13896.9,-44500.545,4424.849999999999,9707.805,30495.645,-13374.045,1891.71,-293.175
-13909.455,-44525.79,4404.78,9697.005,30491.055,-13371.39,1899.09,-293.67
-13925.97,-44534.564999999995,4410.764999999999,9708.84,30506.985,-13353.48,1904.175,-299.205
-13919.49,-44524.125,4419.945,9716.265,30514.32,-13349.97,1902.735,-296.41499999999996
-13915.08,-44528.13,4410.045,9706.859999999999,30503.61,-13361.894999999999,1898.9099999999999,-295.155
-13904.82,-44514.045,4411.575,9703.08,30497.535,-13370.175,1895.355,-291.015
-13901.265,-44503.65,4414.41,9704.744999999999,30499.92,-13371.029999999999,1896.03,-287.955
-13928.67,-44544.104999999996,4393.62,9687.555,30490.469999999998,-13373.73,1894.05,-300.78
-13943.654999999999,-44566.74,4391.6849999999995,9695.52,30505.004999999997,-13351.41,1907.9099999999999,-302.805
-13917.869999999999,-44518.59,4406.67,9700.785,30502.485,-13360.545,1902.2849999999999,-294.75
-13913.505,-44512.65,4398.48,9688.23,30487.995,-13379.445,1883.5649999999998,-300.555
-13909.365,-44517.645,4386.0599999999995,9675.09,30478.86,-13387.994999999999,1880.0549999999998,-298.215
-13915.125,-44539.244999999995,4371.974999999999,9670.32,30479.805,-13383.585,1891.98,-295.155
-13926.914999999999,-44551.53,4374.315,9679.994999999999,30489.254999999997,-13378.904999999999,1898.685,-295.245
-13922.685,-44520.119999999995,4405.545,9703.935,30504.015,-13372.56,1898.73,-294.39
-13899.779999999999,-44483.759999999995,4424.4,9711.135,30503.879999999997,-13377.42,1896.885,-286.155
-13892.715,-44485.38,4424.8949999999995,9717.66,30510.719999999998,-13374.269999999999,1896.345,-281.205
-13894.83,-44485.244999999995,4421.61,9710.775,30500.235,-13389.029999999999,1881.36,-290.115
-13893.48,-44490.33,4409.28,9695.88,30487.32,-13401.269999999999,1876.6799999999998,-289.66499999999996
-13905.404999999999,-44515.395,4391.19,9684.63,30482.73,-13400.055,1885.32,-287.685
-13923.18,-44510.4,4407.66,9704.25,30505.184999999998,-13376.564999999999,1887.705,-298.485
-13909.365,-44496.72,4403.07,9694.619999999999,30492.989999999998,-13389.3,1884.87,-293.03999999999996
-13922.055,-44529.075,4378.32,9679.005,30484.485,-13389.66,1892.6999999999998,-292.14
-13926.644999999999,-44530.875,4381.83,9683.685,30489.164999999997,-13385.519999999999,1895.985,-292.05
-13916.295,-44509.994999999995,4389.93,9684.72,30485.385,-13396.05,1885.77,-292.455
-13912.965,-44511.39,4382.91,9679.32,30482.504999999997,-13396.005,1882.1699999999998,-291.645
-13918.545,-44519.04,4380.885,9681.21,30485.52,-13394.115,1888.02,-290.78999999999996
-13934.564999999999,-44531.64,4375.71,9678.869999999999,30484.079999999998,-13395.824999999999,1889.73,-298.97999999999996
-13922.189999999999,-44523.9,4375.62,9678.69,30483.449999999997,-13397.535,1891.5749999999998,-290.47499999999997
-13916.744999999999,-44516.295,4382.46,9687.33,30492.855,-13391.144999999999,1887.21,-288.45
-13927.769999999999,-44520.57,4374.2699999999995,9676.619999999999,30484.079999999998,-13391.55,1885.59,-296.55
-13916.34,-44515.979999999996,4363.2,9659.25,30463.875,-13409.46,1884.06,-290.115
-13917.465,-44524.665,4358.745,9658.26,30463.605,-13416.795,1879.3799999999999,-289.62
-13932.359999999999,-44536.5,4360.1849999999995,9665.414999999999,30473.235,-13411.89,1881.54,-295.695
-13936.275,-44529.659999999996,4373.325,9679.5,30487.364999999998,-13401.765,1890.36,-293.265
-13934.115,-44521.695,4376.5199999999995,9682.47,30490.11,-13396.769999999999,1887.57,-294.705
-13932.72,-44519.58,4373.01,9680.535,30494.43,-13377.42,1894.77,-292.22999999999996
-13936.904999999999,-44527.994999999995,4357.17,9660.15,30474.045,-13392.585,1892.34,-296.28
-13936.275,-44524.08,4358.565,9662.085,30475.71,-13390.875,1887.0749999999998,-298.08
-13936.275,-44519.22,4364.91,9672.75,30487.905,-13385.475,1880.685,-300.42
-13938.975,-44521.92,4363.47,9674.685,30491.64,-13385.07,1879.29,-302.265
-13944.15,-44532.854999999996,4350.33,9663.93,30483.855,-13389.84,1878.7949999999998,-303.57
-13947.435,-44539.695,4336.155,9647.46,30467.925,-13405.41,1874.0249999999999,-306.675
-13927.095,-44515.755,4342.095,9646.109999999999,30461.489999999998,-13419.81,1868.2649999999999,-299.385
-13919.58,-44512.695,4340.205,9640.26,30450.914999999997,-13435.605,1858.6799999999998,-299.925
-13942.755,-44543.97,4335.84,9650.925,30469.995,-13409.82,1874.52,-302.805
-13956.885,-44544.915,4350.285,9672.885,30496.364999999998,-13380.164999999999,1895.85,-298.62
-13947.75,-44530.56,4344.255,9658.035,30480.21,-13397.85,1887.705,-297.99
-13942.619999999999,-44534.115,4333.365,9648.135,30474.855,-13400.775,1888.47,-293.58
-13947.029999999999,-44535.869999999995,4330.3949999999995,9646.605,30474.809999999998,-13402.845,1884.51,-298.34999999999997
-13953.869999999999,-44537.445,4328.775,9644.31,30471.614999999998,-13406.939999999999,1881.1799999999998,-303.39
-13956.93,-44532.63,4344.21,9655.785,30476.07,-13406.445,1877.985,-306.71999999999997
-13950.585,-44523.585,4347.36,9657.855,30476.16,-13410.539999999999,1872.585,-306.045
-13951.394999999999,-44534.295,4326.974999999999,9636.57,30459.555,-13423.005,1867.095,-307.395
-13962.24,-44544.104999999996,4319.28,9627.029999999999,30452.219999999998,-13430.115,1862.235,-314.09999999999997
-13951.574999999999,-44536.229999999996,4315.455,9625.545,30450.645,-13435.199999999999,1863.36,-306.53999999999996
-13943.835,-44548.064999999995,4297.545,9618.119999999999,30448.35,-13434.795,1873.935,-294.03
-13947.57,-44551.71,4297.68,9622.35,30455.01,-13426.92,1876.5,-295.92
-13954.32,-44530.244999999995,4333.995,9655.289999999999,30480.12,-13407.795,1879.3799999999999,-300.78
-13943.025,-44519.265,4340.97,9657.359999999999,30476.34,-13419.314999999999,1873.0349999999999,-296.72999999999996
-13944.689999999999,-44525.564999999995,4332.96,9652.455,30476.07,-13415.67,1875.2849999999999,-296.28
-13944.869999999999,-44527.725,4326.885,9644.535,30467.385,-13423.904999999999,1874.4299999999998,-295.875
