ch_0,ch_1,ch_2,ch_3,ch_4,ch_5,ch_6,ch_7
-18428.489999999998,-48774.689999999995,-417.465,4462.74,24970.004999999997,-18894.915,-2540.9249999999997,-1974.96
-18433.215,-48763.665,-398.96999999999997,4468.1849999999995,24977.25,-18888.075,-2525.7149999999997,-1965.645
-18430.965,-48759.479999999996,-398.205,4475.5199999999995,24989.76,-18874.89,-2514.87,-1963.5749999999998
-18422.055,-48766.32,-411.39,4458.6449999999995,24963.434999999998,-18886.995,-2510.0099999999998,-1953.7649999999999
-18417.015,-48762.18,-417.41999999999996,4436.37,24928.02,-18903.105,-2516.805,-1953.855
-18407.475,-48747.825,-418.005,4411.485,24880.725,-18924.614999999998,-2530.845,-1956.2849999999999
-18376.02,-48710.88,-416.025,4341.0599999999995,24737.085,-18928.89,-2534.535,-1938.465
-18357.39,-48695.085,-430.875,4276.755,24647.715,-18976.86,-2534.1749999999997,-1926.27
-18397.71,-48741.705,-418.815,4400.955,24870.78,-18971.91,-2519.505,-1943.1
-18431.415,-48768.03,-384.615,4519.62,25047.135,-18816.39,-2537.1,-1972.1699999999998
-18401.355,-48733.83,-374.805,4500.495,25008.254999999997,-18824.355,-2547.45,-1959.7949999999998
-18389.835,-48739.32,-393.93,4469.175,24957.18,-18930.915,-2514.1949999999997,-1936.71
-18438.48,-48783.689999999995,-429.075,4432.86,24929.325,-18839.835,-2510.505,-1973.79
-18417.825,-48761.325,-411.39,4445.73,24931.754999999997,-18797.489999999998,-2541.15,-1969.965
-18335.43,-48683.07,-388.66499999999996,4386.555,24797.16,-18935.64,-2541.4649999999997,-1912.455
-18349.065,-48716.685,-465.255,4249.71,24641.954999999998,-19070.64,-2526.615,-1915.0649999999998
-18438.66,-48811.005,-495.04499999999996,4314.0599999999995,24762.69,-19079.415,-2509.38,-1969.875
-18483.12,-48816.63,-420.93,4505.22,25035.48,-18894.69,-2501.2799999999997,-2001.195
-18444.149999999998,-48761.82,-385.74,4502.745,25007.085,-18833.489999999998,-2506.6349999999998,-1983.6899999999998
-18445.05,-48783.465,-432.85499999999996,4417.11,24876.809999999998,-18883.71,-2512.035,-1988.37
-18394.875,-48740.715,-451.66499999999996,4306.41,24709.545,-18971.055,-2521.2149999999997,-1959.9299999999998
-18313.38,-48646.979999999996,-393.255,4311.585,24684.885,-18968.805,-2556.495,-1908.81
-18284.579999999998,-48599.325,-312.39,4459.995,24882.885,-18895.274999999998,-2543.31,-1891.4399999999998
-18344.745,-48660.57,-286.65,4610.025,25081.515,-18852.39,-2527.335,-1927.71
-18417.195,-48769.965,-393.21,4501.17,24947.37,-18879.48,-2506.5,-1956.105
-18431.82,-48813.03,-497.115,4312.9349999999995,24759.899999999998,-19001.88,-2477.61,-1955.97
-18431.46,-48806.28,-518.5799999999999,4255.605,24714.27,-18888.21,-2484.72,-1961.6399999999999
-18420.21,-48805.11,-537.795,4206.735,24592.68,-19018.395,-2477.3399999999997,-1948.905
-18406.079999999998,-48769.83,-436.14,4412.835,24842.295,-19095.434999999998,-2502.495,-1939.365
-18462.195,-48791.43,-373.995,4592.745,25148.295,-18817.38,-2499.975,-1992.78
-18409.545,-48740.22,-387.99,4483.9349999999995,24979.32,-18808.469999999998,-2515.68,-1970.865
-18373.77,-48711.104999999996,-406.08,4386.33,24792.57,-18881.505,-2517.8849999999998,-1948.6799999999998
-18400.545,-48715.965,-347.715,4523.49,24988.635,-18909.765,-2533.3199999999997,-1961.9099999999999
-18441.54,-48755.115,-354.96,4574.61,25118.235,-18847.305,-2486.6549999999997,-1974.1499999999999
-18420.84,-48745.845,-367.02,4537.125,25052.535,-18818.01,-2490.345,-1963.7549999999999
-18390.329999999998,-48714.975,-361.66499999999996,4500.585,24972.39,-18842.219999999998,-2508.12,-1951.0649999999998
-18376.335,-48709.35,-383.265,4441.815,24883.515,-18904.815,-2513.97,-1942.965
-18384.344999999998,-48727.89,-406.755,4420.26,24860.024999999998,-18962.505,-2500.56,-1946.0249999999999
-18410.265,-48756.195,-415.305,4445.595,24906.42,-18914.94,-2494.305,-1961.73
-18409.68,-48740.939999999995,-368.09999999999997,4526.235,25007.355,-18854.145,-2497.0499999999997,-1962.3149999999998
-18386.91,-48716.055,-350.505,4531.095,25005.42,-18853.739999999998,-2484.9449999999997,-1942.47
-18382.815,-48725.64,-382.77,4472.73,24924.87,-18902.024999999998,-2487.24,-1939.6799999999998
-18365.309999999998,-48722.895,-410.21999999999997,4406.13,24831.855,-18951.344999999998,-2486.115,-1927.71
-18351.36,-48708.945,-418.40999999999997,4359.24,24756.48,-18976.005,-2490.435,-1923.03
-18350.91,-48681.36,-381.59999999999997,4392.495,24782.219999999998,-18894.059999999998,-2521.62,-1939.2749999999999
-18315.045,-48639.015,-349.155,4403.115,24750.809999999998,-18943.469999999998,-2534.895,-1917.7649999999999
-18340.155,-48659.22,-325.53,4483.304999999999,24859.89,-18998.954999999998,-2497.14,-1921.905
-18424.079999999998,-48744.27,-339.435,4586.985,25080.12,-18859.995,-2498.895,-1980.0
-18440.73,-48780.405,-364.365,4565.61,25070.175,-18818.055,-2500.47,-1984.635
-18426.149999999998,-48777.525,-373.275,4526.82,25000.425,-18845.684999999998,-2488.3199999999997,-1966.995
-18413.145,-48752.189999999995,-369.405,4514.3099999999995,24972.12,-18870.84,-2493.0899999999997,-1962.1799999999998
-18388.125,-48720.015,-370.62,4489.11,24927.84,-18890.864999999998,-2498.985,-1953.1799999999998
-18349.245,-48688.92,-401.66999999999996,4376.07,24740.28,-18935.37,-2484.72,-1927.3049999999998
-18322.155,-48672.765,-462.465,4192.83,24464.25,-19041.03,-2473.4249999999997,-1917.72
-18315.719999999998,-48632.805,-382.995,4316.94,24623.145,-18964.844999999998,-2546.955,-1938.24
-18271.26,-48583.17,-301.77,4460.67,24808.86,-19057.005,-2477.115,-1869.975
-18374.04,-48689.189999999995,-330.03,4554.945,25021.26,-18905.85,-2477.97,-1939.635
-18470.745,-48786.299999999996,-349.02,4659.48,25232.895,-18719.55,-2482.56,-2002.995
-18401.399999999998,-48712.545,-329.76,4595.67,25100.37,-18735.03,-2470.3199999999997,-1962.4499999999998
-18314.954999999998,-48640.005,-371.07,4357.305,24688.71,-18855.719999999998,-2477.97,-1913.3999999999999
-18239.13,-48572.955,-402.57,4151.5199999999995,24359.085,-18965.745,-2525.58,-1879.3799999999999
-18266.04,-48613.725,-353.025,4384.3949999999995,24710.265,-19101.69,-2547.81,-1884.4199999999998
-18380.34,-48703.409999999996,-265.365,4764.42,25316.954999999998,-18908.73,-2474.5499999999997,-1939.9499999999998
-18436.32,-48749.445,-315.945,4688.37,25255.665,-18721.575,-2459.835,-1985.9399999999998
-18410.219999999998,-48722.58,-342.99,4563.36,25049.43,-18824.76,-2453.67,-1963.98
-18401.579999999998,-48712.86,-329.4,4581.63,25066.934999999998,-18812.88,-2462.085,-1959.03
-18387.45,-48699.945,-310.09499999999997,4608.945,25085.925,-18805.454999999998,-2472.165,-1952.01
-18365.04,-48683.07,-319.59,4565.655,25012.079999999998,-18868.545,-2460.96,-1936.53
-18369.765,-48704.985,-357.03,4515.03,24953.085,-18885.105,-2458.62,-1939.32
-18367.559999999998,-48693.15,-338.805,4531.005,24967.215,-18867.6,-2471.13,-1942.425
-18331.245,-48626.865,-273.015,4583.474999999999,25009.515,-18810.0,-2479.005,-1928.115
-18304.065,-48595.32,-266.31,4549.139999999999,24940.215,-18845.954999999998,-2489.49,-1917.1799999999998
-18334.89,-48663.99,-370.08,4406.58,24757.02,-18967.5,-2473.9649999999997,-1922.5349999999999
-18344.07,-48678.255,-393.21,4364.595,24681.42,-18981.225,-2460.1949999999997,-1927.8899999999999
-18304.155,-48620.384999999995,-327.78,4427.82,24723.809999999998,-18912.69,-2479.455,-1912.455
-18285.57,-48578.85,-249.03,4558.455,24932.295,-18883.844999999998,-2480.67,-1904.49
-18329.67,-48638.43,-310.815,4525.38,24973.965,-18892.844999999998,-2473.875,-1935.36
-18378.405,-48721.185,-391.68,4464.405,24889.635,-18893.16,-2469.645,-1952.0549999999998
-18364.005,-48690.99,-346.05,4521.78,24935.895,-18856.575,-2488.14,-1950.03
-18372.105,-48686.759999999995,-318.10499999999996,4572.315,24998.895,-18920.52,-2476.665,-1955.07
-18374.94,-48687.119999999995,-290.745,4638.15,25105.184999999998,-18819.135,-2464.065,-1953.855
-18376.559999999998,-48691.215,-301.22999999999996,4606.785,25061.535,-18800.594999999998,-2454.39,-1947.735
-18361.89,-48673.215,-300.96,4582.26,25014.42,-18838.079999999998,-2458.035,-1942.965
-18357.704999999998,-48678.84,-318.645,4555.304999999999,24979.86,-18855.945,-2452.9049999999997,-1936.8899999999999
-18346.95,-48667.545,-307.84499999999997,4561.695,24981.3,-18848.25,-2447.0099999999998,-1927.485
-18328.68,-48650.805,-300.69,4555.755,24966.045,-18849.465,-2462.67,-1921.77
-18301.05,-48614.715,-292.365,4516.785,24897.69,-18812.07,-2481.795,-1914.3
-18276.075,-48593.97,-329.625,4373.01,24667.605,-18917.415,-2460.4649999999997,-1892.385
-18258.524999999998,-48569.939999999995,-316.8,4346.639999999999,24601.41,-19038.105,-2458.08,-1881.945
-18309.329999999998,-48611.159999999996,-278.72999999999996,4527.09,24869.385,-18943.29,-2480.31,-1923.9299999999998
-18371.565,-48667.32,-271.53,4655.205,25060.41,-18817.649999999998,-2479.3199999999997,-1969.155
-18302.219999999998,-48597.84,-273.33,4531.23,24867.899999999998,-18851.489999999998,-2441.025,-1915.245
-18294.75,-48628.979999999996,-361.84499999999997,4368.599999999999,24657.03,-19013.489999999998,-2427.525,-1893.78
-18354.915,-48695.67,-391.635,4400.01,24712.335,-19005.524999999998,-2446.515,-1945.8899999999999
-18339.66,-48663.99,-317.025,4560.57,24968.879999999997,-18966.735,-2488.005,-1940.8049999999998
-18368.055,-48694.86,-277.46999999999997,4720.635,25263.27,-18740.43,-2457.225,-1944.675
-18351.315,-48697.875,-304.155,4657.995,25156.44,-18772.11,-2439.9,-1925.6399999999999
-18350.55,-48700.89,-325.395,4593.78,25048.754999999997,-18830.385,-2440.89,-1925.28
-18357.434999999998,-48663.314999999995,-271.485,4630.23,25066.71,-18792.809999999998,-2441.79,-1938.6899999999998
-18340.2,-48622.365,-243.09,4636.125,25055.594999999998,-18796.005,-2432.43,-1930.5449999999998
-18323.46,-48613.86,-255.825,4601.79,25006.77,-18824.625,-2434.3199999999997,-1921.905
-18311.76,-48606.615,-269.90999999999997,4561.65,24940.485,-18878.94,-2446.515,-1920.195
-18308.07,-48603.645,-260.37,4584.465,24965.954999999998,-18871.38,-2463.93,-1925.37
-18311.94,-48604.994999999995,-239.445,4627.71,25008.03,-18817.245,-2455.6949999999997,-1924.9199999999998
-18288.54,-48582.674999999996,-250.92,4559.8949999999995,24880.68,-18863.82,-2433.375,-1900.98
-18298.395,-48600.99,-296.01,4473.45,24796.35,-18922.77,-2420.0099999999998,-1905.9299999999998
-18299.88,-48614.939999999995,-302.445,4513.815,24902.73,-18881.864999999998,-2441.745,-1908.945
-18318.285,-48638.52,-290.115,4594.635,25008.93,-18852.21,-2443.23,-1917.7649999999999
-18325.079999999998,-48624.525,-248.98499999999999,4645.9349999999995,25052.129999999997,-18807.704999999998,-2444.67,-1929.465
-18314.684999999998,-48608.64,-235.39499999999998,4648.365,25037.46,-18790.875,-2439.4049999999997,-1924.155
-18300.6,-48602.205,-268.605,4565.025,24929.954999999998,-18803.745,-2439.18,-1924.74
-18214.2,-48498.975,-213.12,4527.36,24831.855,-18721.8,-2506.455,-1892.52
-18131.985,-48428.549999999996,-168.61499999999998,4519.9349999999995,24763.23,-18940.59,-2488.3199999999997,-1808.0549999999998
-18316.035,-48628.53,-253.935,4642.245,25038.495,-18920.295,-2379.555,-1902.195
-18403.829999999998,-48720.825,-311.805,4635.72,25081.02,-18829.125,-2401.83,-1968.2549999999999
-18362.61,-48673.845,-316.305,4544.91,24925.23,-18871.515,-2417.1749999999997,-1951.965
-18335.475,-48642.795,-301.68,4541.58,24919.02,-18811.98,-2430.45,-1941.57
-18303.704999999998,-48617.505,-316.305,4470.21,24819.39,-18777.195,-2446.65,-1923.705
-18258.03,-48586.095,-332.145,4364.37,24577.605,-18928.844999999998,-2448.765,-1890.4499999999998
-18208.17,-48523.049999999996,-286.83,4357.53,24509.969999999998,-19040.895,-2488.95,-1870.155
-18242.774999999998,-48557.79,-269.41499999999996,4497.66,24775.92,-19023.255,-2451.7799999999997,-1882.4399999999998
-18336.015,-48633.615,-258.48,4626.135,25006.14,-18869.219999999998,-2414.115,-1945.395
-18343.844999999998,-48657.509999999995,-257.715,4692.33,25133.175,-18859.545,-2427.0299999999997,-1938.735
-18389.52,-48703.725,-238.995,4811.085,25354.98,-18693.0,-2431.755,-1971.675
-18318.465,-48632.939999999995,-223.695,4747.59,25227.36,-18722.43,-2422.2599999999998,-1926.81
-18306.54,-48626.145,-240.84,4686.3,25120.17,-18777.42,-2417.13,-1915.695
-18316.89,-48604.14,-215.82,4676.76,25076.835,-18739.755,-2401.47,-1922.8049999999998
-18313.875,-48580.965,-227.42999999999998,4599.405,24946.155,-18798.344999999998,-2403.27,-1929.6899999999998
-18294.165,-48582.945,-239.22,4599.224999999999,24946.785,-18879.39,-2425.68,-1910.97
-18301.995,-48572.235,-180.855,4730.22,25135.245,-18782.1,-2419.11,-1921.59
-18272.655,-48549.78,-183.555,4702.5,25097.355,-18769.95,-2419.1549999999997,-1903.5449999999998
-18267.84,-48570.57,-237.87,4601.97,24956.73,-18863.28,-2403.6749999999997,-1889.37
-18308.52,-48612.689999999995,-245.655,4636.485,25016.67,-18823.454999999998,-2415.015,-1920.6899999999998
-18309.78,-48602.655,-214.965,4690.349999999999,25084.53,-18769.05,-2424.555,-1927.3049999999998
-18291.42,-48588.615,-224.37,4653.99,25031.114999999998,-18803.52,-2413.35,-1911.465
-18283.32,-48580.74,-230.76,4632.075,24998.805,-18832.32,-2420.145,-1911.735
-18284.85,-48589.155,-236.60999999999999,4624.605,24987.285,-18841.41,-2421.63,-1912.2749999999999
-18298.71,-48613.59,-241.33499999999998,4627.485,24994.079999999998,-18827.55,-2410.245,-1913.895
-18299.114999999998,-48615.165,-239.80499999999998,4631.445,24997.184999999998,-18824.309999999998,-2410.605,-1914.7949999999998
-18293.445,-48600.36,-237.64499999999998,4629.42,24992.37,-18828.63,-2415.24,-1914.03
-18287.55,-48584.52,-232.64999999999998,4625.91,24984.629999999997,-18819.18,-2416.0499999999997,-1912.365
-18274.32,-48571.02,-231.03,4617.945,24972.254999999997,-18812.88,-2411.235,-1902.735
-18248.625,-48548.475,-232.82999999999998,4579.785,24906.239999999998,-18839.79,-2412.45,-1888.245
-18216.18,-48517.064999999995,-237.32999999999998,4488.21,24735.42,-18886.005,-2411.91,-1869.12
-18211.68,-48510.27,-243.54,4475.5199999999995,24713.504999999997,-18920.745,-2402.64,-1871.415
-18212.985,-48515.265,-214.56,4591.485,24900.03,-18959.895,-2418.39,-1877.2649999999999
-18273.329999999998,-48587.759999999995,-247.45499999999998,4606.965,24959.52,-18864.135,-2434.0499999999997,-1919.79
-18285.344999999998,-48587.04,-208.53,4695.525,25072.829999999998,-18806.579999999998,-2422.98,-1915.5149999999999
-18290.745,-48554.595,-152.82,4772.025,25170.885,-18738.765,-2413.2599999999998,-1920.645
-18280.17,-48551.58,-179.595,4715.099999999999,25094.385,-18754.605,-2400.165,-1916.0549999999998
