ch_0,ch_1,ch_2,ch_3,ch_4,ch_5,ch_6,ch_7
29210.309999999998,-4264.065,-1027.665,-4163.535,-20947.725,-41639.445,11772.404999999999,-11920.455
29206.53,-4266.54,-1027.845,-4164.75,-20945.835,-41635.305,11772.855,-11921.22
29197.844999999998,-4274.055,-1033.02,-4171.455,-20948.67,-41634.945,11768.67,-11927.43
29204.325,-4272.21,-1026.54,-4167.764999999999,-20944.305,-41625.494999999995,11781.63,-11915.055
29213.28,-4270.68,-1026.225,-4172.355,-20951.415,-41628.869999999995,11788.38,-11907.945
29216.565,-4277.34,-1037.655,-4190.355,-20971.62,-41648.445,11779.109999999999,-11913.39
29226.69,-4275.2699999999995,-1038.51,-4197.6449999999995,-20979.225,-41651.595,11779.244999999999,-11911.59
29240.055,-4273.38,-1033.7849999999999,-4192.065,-20971.8,-41638.365,11785.095,-11907.855
29240.91,-4280.76,-1036.08,-4182.57,-20959.245,-41619.6,11783.835,-11914.83
29230.02,-4294.305,-1043.55,-4175.37,-20945.835,-41601.465,11778.705,-11927.789999999999
29230.155,-4298.535,-1043.5049999999999,-4170.105,-20931.614999999998,-41581.799999999996,11786.895,-11927.07
29233.575,-4299.12,-1041.2549999999999,-4171.59,-20932.829999999998,-41583.375,11788.875,-11921.13
29235.78,-4298.58,-1039.455,-4174.38,-20935.35,-41586.255,11791.484999999999,-11914.109999999999
29237.85,-4299.974999999999,-1038.24,-4178.205,-20940.255,-41599.125,11794.994999999999,-11909.07
29250.719999999998,-4290.84,-1032.6599999999999,-4191.255,-20954.43,-41628.42,11794.635,-11898.72
29272.815,-4275.72,-1025.46,-4212.54,-20978.37,-41671.395,11790.494999999999,-11884.05
29297.204999999998,-4259.5199999999995,-1013.985,-4218.165,-20991.149999999998,-41692.68,11785.814999999999,-11873.295
29301.795,-4265.73,-1016.865,-4208.849999999999,-20975.489999999998,-41662.034999999996,11777.984999999999,-11887.425
29280.51,-4294.44,-1031.04,-4188.6449999999995,-20940.165,-41600.43,11776.77,-11920.77
29242.754999999997,-4334.264999999999,-1054.305,-4170.465,-20911.454999999998,-41541.119999999995,11778.975,-11959.02
29236.77,-4340.25,-1053.27,-4160.115,-20910.285,-41512.455,11792.88,-11954.835
29236.364999999998,-4331.43,-1043.28,-4164.57,-20911.995,-41513.67,11789.234999999999,-11950.515
29232.405,-4329.675,-1042.695,-4175.01,-20917.665,-41537.97,11784.645,-11950.02
29237.579999999998,-4324.32,-1038.51,-4179.285,-20921.85,-41549.715,11787.66,-11941.109999999999
29254.77,-4308.12,-1024.5149999999999,-4172.49,-20914.515,-41545.71,11795.13,-11925.404999999999
29264.715,-4303.755,-1024.695,-4182.84,-20925.45,-41561.909999999996,11792.25,-11922.164999999999
29272.184999999998,-4304.655,-1032.345,-4201.92,-20948.67,-41591.34,11783.654999999999,-11924.82
29286.09,-4298.13,-1028.475,-4201.695,-20950.875,-41596.11,11780.685,-11923.83
29294.37,-4293.585,-1019.88,-4190.13,-20938.32,-41581.845,11785.095,-11924.324999999999
29287.44,-4302.09,-1025.415,-4191.57,-20936.745,-41581.395,11779.65,-11934.765
29280.105,-4312.08,-1035.18,-4197.96,-20935.8,-41577.165,11773.08,-11946.869999999999
29276.64,-4312.889999999999,-1032.57,-4200.03,-20933.37,-41576.67,11772.72,-11948.535
29280.555,-4306.32,-1023.03,-4196.07,-20925.855,-41572.305,11781.27,-11937.42
29280.555,-4307.445,-1022.2199999999999,-4196.16,-20927.79,-41577.84,11778.435,-11936.744999999999
29290.95,-4299.255,-1012.635,-4189.724999999999,-20924.415,-41578.965,11782.755,-11927.564999999999
29293.785,-4302.36,-1016.5949999999999,-4198.005,-20931.84,-41585.715,11775.105,-11933.775
29300.219999999998,-4306.139999999999,-1021.14,-4204.3949999999995,-20934.09,-41583.51,11777.355,-11936.43
29306.565,-4310.235,-1026.495,-4206.87,-20931.57,-41576.85,11778.705,-11940.615
29310.21,-4310.19,-1021.0949999999999,-4187.43,-20907.809999999998,-41552.775,11781.045,-11943.63
29307.42,-4314.915,-1022.13,-4191.255,-20909.565,-41553.54,11773.71,-11947.5
29311.965,-4308.885,-1017.18,-4194.18,-20909.565,-41552.1,11781.449999999999,-11938.59
29310.164999999997,-4306.23,-1015.29,-4195.845,-20906.954999999998,-41551.02,11783.52,-11937.869999999999
29304.629999999997,-4305.42,-1013.4449999999999,-4197.014999999999,-20903.445,-41551.335,11785.814999999999,-11936.97
29303.684999999998,-4302.72,-1010.25,-4196.43,-20900.565,-41559.615,11788.785,-11932.65
29305.934999999998,-4301.19,-1008.63,-4194.315,-20897.864999999998,-41562.854999999996,11791.26,-11931.029999999999
29307.78,-4305.78,-1014.39,-4202.055,-20902.95,-41564.79,11784.555,-11936.744999999999
29317.32,-4305.825,-1016.4599999999999,-4206.014999999999,-20907.945,-41563.71,11781.135,-11939.039999999999
29321.46,-4307.985,-1019.79,-4210.92,-20918.16,-41562.405,11773.89,-11945.609999999999
29333.655,-4301.37,-1014.525,-4212.585,-20917.395,-41548.32,11777.939999999999,-11940.39
29337.614999999998,-4300.875,-1015.6949999999999,-4215.014999999999,-20910.42,-41542.92,11776.23,-11942.91
29339.55,-4298.67,-1016.1899999999999,-4216.365,-20905.965,-41542.02,11776.095,-11943.855
29337.75,-4297.455,-1015.155,-4217.805,-20903.13,-41544.945,11777.49,-11943.18
29333.07,-4300.245,-1016.73,-4223.43,-20906.325,-41554.305,11776.05,-11946.24
29339.235,-4292.28,-1007.415,-4216.815,-20896.829999999998,-41548.365,11784.779999999999,-11937.645
29346.93,-4287.78,-1004.4449999999999,-4218.974999999999,-20897.325,-41552.46,11788.154999999999,-11934.18
29351.835,-4287.465,-1009.665,-4233.465,-20911.77,-41570.955,11781.81,-11936.97
29368.98,-4276.755,-1003.23,-4240.305,-20918.565,-41576.58,11786.31,-11927.88
29382.795,-4270.005,-1001.3399999999999,-4244.94,-20922.39,-41580.854999999996,11781.855,-11929.185
29386.53,-4270.139999999999,-1000.8449999999999,-4242.599999999999,-20917.305,-41575.095,11772.855,-11938.545
29372.535,-4287.735,-1015.245,-4245.615,-20910.96,-41562.18,11760.75,-11958.029999999999
29361.375,-4297.545,-1019.4749999999999,-4238.595,-20895.48,-41546.835,11766.285,-11965.59
29366.684999999998,-4287.599999999999,-1010.385,-4232.565,-20884.5,-41538.78,11775.555,-11952.63
29366.414999999997,-4281.885,-1003.9499999999999,-4232.34,-20882.16,-41538.284999999996,11778.705,-11948.13
29366.774999999998,-4278.375,-998.8199999999999,-4231.665,-20880.899999999998,-41539.185,11779.47,-11945.205
29369.7,-4275.945,-997.38,-4234.455,-20880.225,-41537.924999999996,11780.955,-11943.72
29367.0,-4283.415,-1007.64,-4247.415,-20891.52,-41549.174999999996,11771.189999999999,-11953.484999999999
29376.675,-4276.98,-1002.6899999999999,-4244.355,-20888.1,-41545.53,11772.765,-11951.64
29381.76,-4277.295,-1005.93,-4251.6449999999995,-20895.614999999998,-41551.92,11767.994999999999,-11956.095
29389.635,-4271.58,-1000.935,-4251.33,-20894.085,-41549.58,11772.18,-11952.135
29384.594999999998,-4277.34,-1007.145,-4259.565,-20899.89,-41555.835,11766.6,-11958.3
29382.66,-4274.639999999999,-1002.5999999999999,-4260.195,-20898.36,-41555.07,11768.355,-11957.49
29383.829999999998,-4266.945,-991.485,-4256.415,-20891.565,-41549.04,11778.435,-11947.5
29378.925,-4265.82,-990.36,-4262.22,-20893.86,-41552.055,11782.664999999999,-11942.73
29376.27,-4265.865,-993.24,-4272.57,-20901.195,-41563.35,11785.59,-11939.535
29377.844999999998,-4263.57,-993.24,-4279.005,-20907.899999999998,-41578.965,11783.835,-11938.949999999999
29373.434999999998,-4269.555,-1000.395,-4287.825,-20914.965,-41591.07,11772.585,-11950.244999999999
29383.425,-4260.6449999999995,-989.505,-4281.66,-20907.765,-41583.104999999996,11770.56,-11950.064999999999
29388.6,-4262.264999999999,-993.42,-4293.135,-20918.655,-41587.29,11763.045,-11953.439999999999
29391.66,-4260.87,-991.62,-4292.55,-20911.995,-41571.18,11761.875,-11956.68
29398.77,-4246.38,-972.765,-4274.775,-20892.825,-41534.46,11765.789999999999,-11954.564999999999
29395.079999999998,-4243.68,-964.17,-4260.78,-20866.635,-41504.49,11765.475,-11959.965
29378.385,-4259.205,-983.025,-4282.74,-20879.415,-41525.145,11764.529999999999,-11967.39
29371.545,-4260.465,-983.745,-4289.94,-20882.43,-41531.354999999996,11768.805,-11963.789999999999
29375.055,-4252.7699999999995,-976.005,-4288.365,-20877.704999999998,-41528.52,11777.76,-11953.935
29383.11,-4246.65,-974.52,-4298.49,-20887.245,-41544.99,11777.175,-11948.265
29385.539999999997,-4249.665,-985.23,-4325.625,-20913.21,-41572.845,11766.824999999999,-11952.63
29392.695,-4245.12,-981.27,-4328.28,-20908.53,-41561.235,11763.81,-11958.074999999999
29401.065,-4238.82,-970.74,-4316.264999999999,-20885.67,-41537.25,11767.455,-11963.025
29398.86,-4244.715,-975.285,-4325.58,-20886.57,-41537.34,11763.675,-11971.664999999999
29398.094999999998,-4245.93,-978.165,-4345.875,-20903.805,-41545.89,11762.1,-11973.779999999999
29400.704999999998,-4241.295,-977.9399999999999,-4359.96,-20912.67,-41558.49,11758.275,-11971.845
29403.585,-4234.1849999999995,-973.89,-4369.32,-20916.27,-41564.835,11761.56,-11964.24
29403.18,-4229.1449999999995,-968.13,-4374.045,-20914.515,-41569.604999999996,11755.035,-11964.645
29409.21,-4225.05,-955.17,-4362.57,-20896.829999999998,-41555.159999999996,11764.529999999999,-11957.67
29412.315,-4229.639999999999,-948.645,-4351.59,-20878.695,-41539.14,11767.32,-11958.93
29415.105,-4228.514999999999,-949.05,-4355.82,-20876.445,-41537.115,11758.68,-11965.545
29419.425,-4230.495,-951.255,-4358.79,-20871.495,-41523.93,11754.27,-11972.07
29417.535,-4245.03,-968.0849999999999,-4372.83,-20878.829999999998,-41524.11,11749.275,-11985.255
29431.17,-4237.83,-960.12,-4372.065,-20875.094999999998,-41518.53,11752.875,-11979.945
29428.785,-4239.315,-960.39,-4378.905,-20881.17,-41523.255,11745.359999999999,-11986.244999999999
29429.954999999998,-4235.805,-956.79,-4389.21,-20892.105,-41529.869999999995,11748.375,-11982.555
29431.664999999997,-4230.855,-950.9399999999999,-4396.139999999999,-20896.02,-41537.52,11750.984999999999,-11975.939999999999
29432.835,-4225.815,-947.43,-4404.105,-20902.14,-41546.025,11755.395,-11968.83
29443.41,-4214.745,-939.3299999999999,-4407.84,-20904.93,-41549.715,11759.85,-11959.92
29451.105,-4208.715,-933.795,-4407.93,-20901.239999999998,-41543.1,11757.42,-11960.145
29450.52,-4210.92,-933.255,-4400.055,-20884.59,-41522.715,11749.59,-11971.215
29448.629999999997,-4221.855,-945.0899999999999,-4399.0199999999995,-20871.495,-41504.895,11740.455,-11986.83
29454.614999999998,-4225.365,-950.76,-4404.735,-20870.37,-41498.909999999996,11740.32,-11989.08
29469.239999999998,-4218.03,-945.3149999999999,-4407.389999999999,-20871.405,-41501.79,11745.27,-11980.035
29475.405,-4217.49,-942.615,-4408.74,-20871.899999999998,-41502.33,11745.18,-11978.234999999999
29472.254999999997,-4225.545,-948.015,-4416.705,-20879.64,-41509.619999999995,11740.68,-11984.175
29467.934999999998,-4231.53,-950.895,-4421.745,-20883.42,-41513.13,11739.914999999999,-11985.525
29466.18,-4236.795,-955.8,-4431.105,-20890.575,-41520.284999999996,11741.085,-11984.939999999999
29472.3,-4236.255,-956.115,-4436.415,-20894.715,-41524.515,11739.51,-11983.23
29488.41,-4227.12,-945.9,-4432.41,-20889.899999999998,-41519.34,11743.605,-11973.869999999999
29495.25,-4227.93,-943.6949999999999,-4431.465,-20890.62,-41519.385,11739.689999999999,-11977.244999999999
29504.25,-4230.495,-947.745,-4437.855,-20898.18,-41523.57,11737.574999999999,-11980.215
29509.335,-4240.53,-960.795,-4453.29,-20911.86,-41536.305,11727.135,-11989.574999999999
29515.995,-4244.805,-964.53,-4458.87,-20915.954999999998,-41542.244999999995,11722.14,-11993.265
29520.675,-4243.095,-960.93,-4453.38,-20909.024999999998,-41546.97,11718.72,-11994.48
29523.51,-4240.125,-955.2149999999999,-4442.985,-20897.235,-41546.115,11717.145,-11995.064999999999
29524.454999999998,-4239.315,-947.0699999999999,-4428.855,-20879.415,-41523.57,11723.895,-11991.645
29516.895,-4248.2699999999995,-947.925,-4424.13,-20869.965,-41507.82,11720.52,-11997.81
29518.289999999997,-4249.755,-946.305,-4426.29,-20873.204999999998,-41502.645,11725.47,-11994.57
29529.855,-4246.695,-943.245,-4427.19,-20878.559999999998,-41510.564999999995,11731.77,-11987.369999999999
29539.664999999997,-4247.19,-945.765,-4434.03,-20886.57,-41538.78,11729.789999999999,-11986.92
29553.93,-4244.22,-944.8199999999999,-4440.195,-20895.255,-41551.74,11727.27,-11985.345
29567.745,-4244.13,-949.005,-4455.045,-20914.469999999998,-41562.045,11723.22,-11985.705
29571.524999999998,-4251.78,-960.12,-4473.855,-20935.17,-41576.22,11715.48,-11991.734999999999
29575.53,-4255.0199999999995,-958.0949999999999,-4472.415,-20932.065,-41573.79,11710.305,-11993.13
29578.094999999998,-4253.04,-949.905,-4458.105,-20912.13,-41544.63,11708.73,-11994.435
29574.09,-4254.255,-939.4649999999999,-4435.74,-20883.105,-41494.14,11714.085,-11999.07
29562.885,-4269.6449999999995,-945.9449999999999,-4434.255,-20876.805,-41480.145,11717.279999999999,-12009.24
29566.98,-4269.915,-942.48,-4435.0199999999995,-20878.29,-41482.35,11720.699999999999,-12005.01
29574.36,-4270.995,-943.74,-4436.73,-20879.73,-41485.229999999996,11724.029999999999,-12003.3
29581.92,-4273.0199999999995,-946.17,-4440.195,-20881.71,-41488.02,11719.305,-12007.529999999999
29595.96,-4270.005,-944.1899999999999,-4441.545,-20884.14,-41488.244999999995,11713.275,-12009.51
29622.87,-4274.82,-951.795,-4453.0199999999995,-20897.055,-41499.9,11706.435,-12013.695
29626.965,-4279.05,-956.3399999999999,-4463.55,-20910.329999999998,-41513.895,11701.845,-12016.664999999999
29614.725,-4288.23,-963.63,-4477.005,-20925.495,-41531.715,11691.81,-12022.65
29623.86,-4289.355,-963.3149999999999,-4477.95,-20925.045,-41532.705,11688.93,-12024.449999999999
29621.25,-4280.13,-948.8249999999999,-4462.83,-20908.26,-41516.28,11698.199999999999,-12014.865
29618.055,-4282.47,-944.64,-4459.095,-20902.454999999998,-41510.88,11704.32,-12014.055
29615.085,-4290.389999999999,-950.5799999999999,-4466.115,-20910.69,-41520.42,11699.46,-12018.105
29618.37,-4287.87,-945.405,-4462.155,-20909.024999999998,-41517.27,11704.32,-12011.895
29621.024999999998,-4299.255,-955.17,-4473.315,-20921.219999999998,-41527.619999999995,11694.555,-12019.68
29626.875,-4300.245,-953.145,-4470.885,-20920.094999999998,-41524.74,11692.529999999999,-12020.805
29638.71,-4295.745,-946.8,-4466.385,-20917.035,-41517.63,11695.859999999999,-12016.89
29643.524999999998,-4300.785,-951.5699999999999,-4473.764999999999,-20926.17,-41522.805,11691.27,-12021.029999999999
29646.135,-4297.275,-946.8,-4470.705,-20922.93,-41518.034999999996,11694.734999999999,-12015.99
