ch_0,ch_1,ch_2,ch_3,ch_4,ch_5,ch_6,ch_7
-24036.84,-35176.32,-2794.95,-14788.845,-14436.269999999999,33851.924999999996,243989.72999999998,-20343.42
-24078.69,-35193.69,-2844.54,-14840.82,-14465.025,33996.33,244200.19499999998,-20381.445
-24086.25,-35186.31,-2887.4249999999997,-14861.115,-14461.74,34153.47,244390.54499999998,-20391.524999999998
-24141.149999999998,-35232.795,-2936.97,-14915.789999999999,-14499.225,34322.31,244598.35499999998,-20430.54
-24176.745,-35246.07,-2960.64,-14967.18,-14527.574999999999,34503.21,244814.58,-20462.579999999998
-24200.235,-35224.965,-2972.88,-15036.074999999999,-14538.51,34693.65,245020.22999999998,-20478.915
-24244.379999999997,-35218.44,-3022.29,-15154.605,-14577.119999999999,34890.75,245237.26499999998,-20507.94
-24284.565,-35261.235,-3082.5,-15190.695,-14606.64,35075.295,245448.13499999998,-20547.09
-24294.735,-35386.065,-3103.74,-15057.404999999999,-14560.785,35267.085,245629.035,-20562.795
-24312.239999999998,-35507.07,-3123.0,-14985.765,-14543.82,35459.685,245821.365,-20583.855
-24366.239999999998,-35577.854999999996,-3150.9449999999997,-15046.244999999999,-14576.805,35659.935,246040.60499999998,-20624.13
-24402.555,-35620.29,-3185.2799999999997,-15089.939999999999,-14601.375,35863.38,246243.645,-20654.37
-24422.04,-35582.67,-3216.6,-15146.82,-14625.81,36074.655,246432.24,-20674.215
-24466.815,-35605.665,-3244.68,-15189.795,-14647.545,36289.485,246629.97,-20706.84
-24527.07,-35646.659999999996,-3287.475,-15254.099999999999,-14683.185,36505.034999999996,246842.685,-20748.059999999998
-24563.295,-35623.08,-3323.565,-15322.365,-14706.18,36725.805,247034.25,-20775.285
-24580.934999999998,-35612.729999999996,-3336.5699999999997,-15372.135,-14719.275,36930.195,247220.81999999998,-20799.36
-24612.434999999998,-35748.63,-3382.6949999999997,-15347.385,-14706.539999999999,37130.4,247411.08,-20827.485
-24610.905,-35827.2,-3397.68,-15320.16,-14692.635,37332.18,247580.00999999998,-20832.524999999998
-24642.045,-35770.32,-3431.43,-15358.5,-14728.59,37521.945,247759.69499999998,-20875.454999999998
-24642.045,-35740.034999999996,-3453.795,-15412.769999999999,-14735.789999999999,37709.685,247928.44499999998,-20892.285
-24657.885,-35774.145,-3481.29,-15400.125,-14720.805,37890.494999999995,248081.535,-20899.215
-24710.445,-35861.939999999995,-3468.69,-15343.47,-14718.015,38077.875,248243.31,-20928.329999999998
-24702.434999999998,-35863.29,-3500.1,-15385.814999999999,-14743.35,38260.395,248391.04499999998,-20943.09
-24693.12,-35833.77,-3504.4649999999997,-15401.205,-14726.88,38438.909999999996,248532.38999999998,-20942.73
-24715.98,-35831.61,-3519.72,-15438.015,-14732.955,38613.915,248692.77,-20957.535
-24746.805,-35821.575,-3530.25,-15482.43,-14752.394999999999,38777.354999999996,248848.91999999998,-20982.645
-24793.649999999998,-35832.42,-3550.185,-15523.019999999999,-14783.58,38928.689999999995,249004.25999999998,-21019.5
-24818.489999999998,-35872.965,-3574.665,-15522.029999999999,-14787.945,39084.57,249150.82499999998,-21041.19
-24797.565,-35946.405,-3580.785,-15453.675,-14742.494999999999,39226.049999999996,249266.78999999998,-21032.774999999998
-24805.71,-35988.345,-3561.0299999999997,-15436.845,-14739.795,39353.67,249395.715,-21042.989999999998
-24838.785,-35990.145,-3597.615,-15483.644999999999,-14771.115,39475.395,249539.895,-21070.755
-24832.62,-35990.775,-3628.845,-15488.369999999999,-14766.795,39594.15,249660.405,-21068.774999999998
-24860.25,-35983.215,-3653.19,-15539.355,-14796.63,39707.235,249798.645,-21093.255
-24881.625,-35970.03,-3656.0699999999997,-15573.779999999999,-14813.189999999999,39816.674999999996,249930.495,-21112.695
-24873.614999999998,-35935.02,-3652.6949999999997,-15562.529999999999,-14796.72,39908.07,250036.91999999998,-21113.28
-24855.75,-35914.365,-3638.115,-15534.945,-14770.89,39994.424999999996,250130.43,-21101.76
-24850.8,-35975.295,-3621.105,-15509.88,-14760.359999999999,40068.854999999996,250230.06,-21102.12
-24833.79,-36000.585,-3595.545,-15484.32,-14739.66,40132.17,250330.31999999998,-21097.8
-24842.7,-35943.659999999996,-3600.855,-15521.039999999999,-14746.904999999999,40195.395,250432.47,-21103.965
-24850.665,-35956.35,-3629.97,-15551.955,-14751.045,40252.005,250540.28999999998,-21105.54
-24857.864999999998,-35990.325,-3630.42,-15523.965,-14745.24,40285.35,250641.27,-21115.53
-24835.184999999998,-35919.945,-3591.045,-15470.414999999999,-14726.88,40315.455,250716.285,-21108.78
-24830.19,-35833.77,-3568.41,-15454.845,-14719.904999999999,40343.13,250800.88499999998,-21111.795
-24828.66,-35828.415,-3585.915,-15473.07,-14720.085,40372.784999999996,250901.235,-21107.969999999998
-24821.055,-35904.375,-3618.9449999999997,-15483.555,-14719.904999999999,40397.534999999996,251009.595,-21102.93
-24778.98,-35913.51,-3560.1299999999997,-15436.664999999999,-14683.635,40403.7,251080.02,-21081.465
-24789.96,-35866.305,-3537.99,-15446.295,-14696.414999999999,40407.885,251168.03999999998,-21088.71
-24811.515,-35835.03,-3591.0,-15469.38,-14712.66,40409.46,251273.025,-21094.065
-24780.555,-35897.76,-3587.895,-15446.25,-14678.1,40402.799999999996,251348.31,-21065.76
-24761.52,-35974.034999999996,-3612.33,-15448.769999999999,-14674.994999999999,40384.845,251440.69499999998,-21053.52
-24759.765,-35902.979999999996,-3512.205,-15372.855,-14670.539999999999,40347.18,251492.03999999998,-21059.82
-24778.89,-35853.84,-3413.295,-15340.5,-14675.265,40312.26,251575.69499999998,-21077.145
-24770.204999999998,-35843.13,-3480.75,-15363.585,-14669.73,40280.04,251675.595,-21067.38
-24775.245,-35843.715,-3526.065,-15406.289999999999,-14689.8,40239.494999999995,251778.78,-21064.995
-24749.28,-35792.595,-3502.71,-15406.109999999999,-14683.769999999999,40186.935,251847.27,-21049.829999999998
-24731.37,-35731.53,-3425.535,-15382.619999999999,-14666.49,40112.775,251910.585,-21040.785
-24692.85,-35775.54,-3382.29,-15370.74,-14639.085,40028.22,251970.705,-21010.5
-24677.46,-35749.89,-3400.83,-15432.48,-14654.34,39945.51,252054.04499999998,-20999.204999999998
-24628.59,-35686.125,-3429.99,-15409.89,-14633.1,39854.205,252107.81999999998,-20969.01
-24631.739999999998,-35663.805,-3450.105,-15310.664999999999,-14627.519999999999,39750.299999999996,252174.50999999998,-20973.375
-24622.2,-35691.615,-3332.25,-15142.635,-14581.529999999999,39628.755,252215.865,-20966.94
-24590.475,-35693.729999999996,-3251.6099999999997,-15120.314999999999,-14562.72,39498.479999999996,252272.025,-20948.715
-24537.915,-35617.365,-3237.66,-15130.17,-14547.15,39373.965,252318.375,-20914.559999999998
-24523.829999999998,-35587.305,-3235.0499999999997,-15137.955,-14551.109999999999,39244.365,252385.11,-20900.655
-24474.195,-35439.255,-3167.505,-15088.994999999999,-14517.945,39093.705,252411.75,-20872.71
-24432.3,-35349.39,-3116.205,-15049.125,-14485.994999999999,38932.92,252449.775,-20841.165
-24407.01,-35376.075,-3077.595,-15022.215,-14470.019999999999,38770.155,252500.13,-20816.145
-24378.3,-35513.235,-3048.0299999999997,-14988.555,-14441.039999999999,38606.58,252566.55,-20786.805
-24349.23,-35439.479999999996,-3054.105,-15000.705,-14436.9,38435.174999999996,252617.805,-20761.469999999998
-24322.68,-35357.445,-3042.0,-15057.269999999999,-14445.765,38261.924999999996,252670.905,-20733.03
-24271.469999999998,-35260.74,-2996.5499999999997,-15050.88,-14422.949999999999,38070.314999999995,252699.03,-20691.855
-24236.28,-35193.869999999995,-2944.2149999999997,-14970.779999999999,-14396.939999999999,37865.7,252734.805,-20666.52
-24237.945,-35181.18,-2913.615,-14838.93,-14378.894999999999,37663.11,252791.72999999998,-20668.32
-24192.495,-35185.725,-2844.315,-14756.13,-14335.019999999999,37470.33,252831.555,-20629.17
-24150.555,-35202.51,-2809.665,-14727.24,-14320.17,37283.22,252889.56,-20598.975
-24097.59,-35132.58,-2787.975,-14716.619999999999,-14306.715,37077.57,252942.47999999998,-20566.17
-24069.329999999998,-35110.845,-2780.37,-14713.965,-14297.939999999999,36869.445,253000.935,-20540.925
-24031.71,-35033.13,-2720.6099999999997,-14692.859999999999,-14279.984999999999,36668.924999999996,253045.71,-20510.82
-24024.42,-35026.155,-2677.5899999999997,-14682.689999999999,-14276.475,36469.17,253108.97999999998,-20495.925
-23987.879999999997,-34945.65,-2654.64,-14655.465,-14264.01,36267.75,253158.21,-20467.305
-23968.844999999998,-34893.315,-2639.43,-14646.465,-14263.965,36055.53,253219.59,-20447.64
-23938.965,-34878.375,-2615.355,-14649.525,-14240.07,35858.07,253282.995,-20415.105
-23910.48,-34856.369999999995,-2626.065,-14634.045,-14222.025,35675.955,253348.155,-20384.954999999998
-23904.27,-34971.03,-2681.595,-14596.289999999999,-14229.18,35498.744999999995,253449.495,-20370.645
-23911.559999999998,-34984.89,-2643.39,-14558.58,-14239.935,35319.78,253540.305,-20371.77
-23887.62,-34835.895,-2540.7,-14527.17,-14221.439999999999,35128.35,253600.19999999998,-20355.795
-23849.954999999998,-34804.08,-2505.7799999999997,-14507.055,-14208.93,34938.494999999995,253671.88499999998,-20331.989999999998
-23841.765,-34815.24,-2492.055,-14526.449999999999,-14231.97,34763.67,253774.035,-20327.94
-23814.54,-34795.89,-2437.92,-14497.515,-14218.695,34594.604999999996,253848.96,-20303.64
-23777.235,-34742.205,-2421.225,-14458.23,-14193.314999999999,34416.18,253924.02,-20274.075
-23765.129999999997,-34758.945,-2432.9249999999997,-14439.555,-14180.76,34251.885,254017.71,-20256.03
-23756.85,-34742.25,-2417.085,-14447.789999999999,-14190.435,34089.299999999996,254124.63,-20248.605
-23721.93,-34699.95,-2393.595,-14433.345,-14175.539999999999,33937.515,254215.485,-20222.73
-23724.225,-34727.265,-2396.9249999999997,-14431.994999999999,-14179.185,33798.104999999996,254336.715,-20218.184999999998
-23697.405,-34681.365,-2373.0299999999997,-14409.494999999999,-14166.945,33662.97,254436.16499999998,-20197.26
-23698.44,-34635.42,-2372.895,-14421.33,-14178.42,33538.725,254557.88999999998,-20190.105
-23704.379999999997,-34623.45,-2390.4,-14454.99,-14187.33,33418.305,254684.745,-20188.079999999998
-23717.79,-34673.13,-2454.75,-14492.025,-14201.505,33312.735,254829.33,-20183.355
-23728.094999999998,-34699.59,-2441.52,-14466.105,-14208.21,33217.11,254955.06,-20183.535
-23744.565,-34726.545,-2398.86,-14453.055,-14234.49,33112.89,255095.46,-20198.7
-23745.239999999998,-34671.869999999995,-2389.3199999999997,-14470.83,-14246.055,33014.655,255225.645,-20200.364999999998
-23744.114999999998,-34632.72,-2404.35,-14502.869999999999,-14244.705,32942.385,255356.145,-20191.364999999998
-23753.879999999997,-34665.479999999996,-2443.95,-14555.519999999999,-14263.875,32875.02,255509.775,-20193.165
-23731.155,-34776.854999999996,-2432.115,-14519.88,-14250.195,32811.84,255653.00999999998,-20182.32
-23732.64,-34815.869999999995,-2423.25,-14459.4,-14255.414999999999,32761.53,255796.91999999998,-20187.18
-23745.645,-34721.865,-2381.4,-14421.42,-14267.16,32718.555,255934.66499999998,-20200.725
-23744.655,-34737.39,-2362.5,-14412.33,-14254.064999999999,32673.42,256072.63499999998,-20199.735
-23752.305,-34773.165,-2405.79,-14461.785,-14271.255,32646.96,256238.81999999998,-20206.8
-23767.245,-34751.25,-2448.18,-14533.289999999999,-14307.255,32639.85,256401.585,-20215.125
-23784.795,-34749.045,-2473.74,-14554.17,-14315.039999999999,32638.59,256552.83,-20213.864999999998
-23814.945,-34800.21,-2517.0299999999997,-14587.38,-14341.635,32635.98,256724.775,-20232.855
-23801.895,-34802.19,-2579.895,-14624.144999999999,-14337.539999999999,32638.364999999998,256884.66,-20229.524999999998
-23835.105,-34755.119999999995,-2607.165,-14684.355,-14354.55,32655.42,257050.08,-20246.309999999998
-23870.79,-34790.354999999996,-2601.045,-14703.93,-14369.58,32689.17,257221.845,-20269.665
-23858.64,-34864.38,-2548.395,-14621.4,-14349.195,32720.985,257366.16,-20265.57
-23829.39,-34937.595,-2550.105,-14533.695,-14327.414999999999,32748.93,257518.97999999998,-20257.605
-23860.395,-34911.9,-2603.52,-14581.08,-14368.005,32797.619999999995,257696.505,-20284.065
-23933.25,-34943.265,-2607.39,-14657.85,-14430.465,32862.06,257896.97999999998,-20331.135
-23951.114999999998,-34960.365,-2665.395,-14687.189999999999,-14435.369999999999,32930.685,258073.69499999998,-20345.535
-23943.059999999998,-34983.765,-2676.87,-14685.93,-14422.5,32990.67,258235.155,-20347.245
-23935.59,-34956.225,-2662.1549999999997,-14715.539999999999,-14427.269999999999,33050.295,258394.59,-20349.765
-23932.844999999998,-34920.135,-2681.595,-14780.88,-14429.385,33125.805,258558.97499999998,-20346.93
-23972.265,-34955.505,-2750.1749999999997,-14840.55,-14444.234999999999,33229.26,258742.845,-20360.655
-24015.149999999998,-35023.049999999996,-2784.33,-14798.34,-14452.335,33343.92,258928.56,-20388.195
-24041.879999999997,-35132.895,-2784.1949999999997,-14755.724999999999,-14458.5,33450.345,259118.32499999998,-20413.665
-24038.504999999997,-35083.44,-2700.9449999999997,-14736.96,-14461.515,33551.325,259283.43,-20431.844999999998
-24077.295,-35106.93,-2780.415,-14809.68,-14502.689999999999,33674.534999999996,259486.785,-20463.3
-24137.55,-35147.205,-2830.14,-14857.92,-14535.225,33818.49,259691.66999999998,-20498.94
-24144.21,-35148.6,-2837.565,-14864.894999999999,-14521.23,33958.08,259861.995,-20506.905
-24144.84,-35145.36,-2859.345,-14893.965,-14525.324999999999,34092.494999999995,260041.22999999998,-20516.265
-24165.855,-35192.295,-2910.33,-14946.795,-14553.539999999999,34229.43,260237.97,-20536.875
-24205.68,-35246.52,-2958.8399999999997,-14989.23,-14577.615,34388.865,260440.11,-20562.434999999998
-24266.79,-35282.655,-3013.38,-15025.14,-14612.22,34563.51,260646.56999999998,-20603.295
-24320.655,-35301.555,-3084.525,-15083.82,-14649.93,34747.335,260858.52,-20644.335
-24354.495,-35357.94,-3119.22,-15122.385,-14661.314999999999,34931.43,261057.78,-20669.67
-24329.61,-35366.22,-3090.42,-15092.46,-14644.35,35095.77,261225.04499999998,-20669.625
-24363.135,-35389.71,-3076.605,-15104.654999999999,-14660.505,35269.244999999995,261412.38,-20699.82
-24401.879999999997,-35422.695,-3089.88,-15134.13,-14666.939999999999,35446.77,261612.18,-20732.355
-24411.87,-35361.315,-3074.22,-15138.9,-14674.725,35623.979999999996,261783.44999999998,-20751.344999999998
-24431.129999999997,-35456.04,-3084.975,-15144.48,-14685.029999999999,35806.77,261978.705,-20772.18
-24416.415,-35503.695,-3163.14,-15142.814999999999,-14666.265,35992.979999999996,262159.96499999997,-20775.059999999998
-24418.754999999997,-35514.36,-3201.8399999999997,-15139.98,-14649.255,36192.33,262331.1,-20779.245
-24469.515,-35536.814999999995,-3198.6,-15171.074999999999,-14662.935,36396.27,262500.345,-20810.295
-24514.425,-35593.424999999996,-3256.515,-15209.955,-14688.63,36600.21,262664.955,-20845.125
-24528.555,-35580.869999999995,-3267.495,-15230.97,-14711.58,36806.265,262896.48,-20868.975
-24526.98,-35552.34,-3235.095,-15216.029999999999,-14698.484999999999,37008.045,263070.63,-20877.255
-24575.895,-35615.115,-3313.305,-15286.32,-14730.435,37224.135,263273.08499999996,-20909.34
-24609.059999999998,-35645.939999999995,-3357.4049999999997,-15335.189999999999,-14746.769999999999,37443.555,263466.58499999996,-20935.62
-24638.219999999998,-35663.625,-3367.98,-15363.135,-14757.705,37665.36,263640.825,-20955.105
