ch_0,ch_1,ch_2,ch_3,ch_4,ch_5,ch_6,ch_7
5307.12,-28833.03,-1295.595,-153.945,12608.279999999999,-15612.84,-1932.435,2846.43
5285.34,-28878.434999999998,-1338.615,-168.525,12597.345,-15604.109999999999,-1928.4299999999998,2838.42
5279.4,-28890.539999999997,-1353.915,-168.12,12606.119999999999,-15575.31,-1915.1999999999998,2826.99
5262.66,-28886.039999999997,-1328.94,-163.39499999999998,12616.92,-15545.564999999999,-1909.1699999999998,2800.4849999999997
5253.21,-28865.789999999997,-1323.09,-168.075,12613.859999999999,-15538.814999999999,-1914.615,2789.37
5263.155,-28855.575,-1341.09,-197.73,12579.48,-15570.269999999999,-1926.09,2795.625
5289.66,-28861.695,-1345.68,-191.25,12596.49,-15554.43,-1937.0249999999999,2819.88
5278.095,-28892.969999999998,-1347.48,-194.57999999999998,12611.88,-15542.91,-1958.04,2812.815
5321.295,-28833.93,-1341.99,-200.83499999999998,12611.925,-15555.015,-1991.79,2838.42
5355.585,-28787.895,-1376.46,-232.73999999999998,12580.244999999999,-15581.789999999999,-2034.09,2858.085
5382.405,-28758.329999999998,-1363.0049999999999,-224.37,12563.55,-15646.095,-2057.085,2879.46
5381.955,-28758.825,-1348.5149999999999,-224.82,12537.63,-15700.365,-2062.2599999999998,2872.2149999999997
5362.514999999999,-28771.515,-1335.4199999999998,-205.875,12531.51,-15622.289999999999,-2057.895,2850.93
5326.605,-28779.164999999997,-1315.665,-199.575,12500.64,-15602.49,-2045.1599999999999,2819.6099999999997
5306.355,-28778.985,-1283.355,-146.97,12622.68,-15563.789999999999,-2050.6949999999997,2797.065
5326.92,-28756.89,-1254.6,-134.775,12687.84,-15532.064999999999,-2074.23,2808.72
5352.48,-28751.805,-1253.43,-143.415,12628.26,-15544.349999999999,-2093.895,2846.16
5338.26,-28779.344999999998,-1275.21,-125.1,12651.975,-15572.205,-2121.525,2842.47
5337.45,-28781.055,-1277.685,-131.04,12655.845,-15574.994999999999,-2144.295,2843.775
5345.28,-28769.355,-1274.58,-148.995,12625.875,-15611.984999999999,-2182.95,2851.38
5341.7699999999995,-28776.015,-1287.27,-164.97,12606.975,-15633.855,-2209.23,2851.38
5358.105,-28769.67,-1291.32,-184.005,12587.939999999999,-15611.67,-2216.745,2861.595
5363.82,-28761.704999999998,-1281.87,-208.44,12541.32,-15596.01,-2198.6549999999997,2858.31
5335.38,-28792.485,-1300.05,-226.665,12503.295,-15598.439999999999,-2190.87,2838.33
5344.785,-28802.114999999998,-1316.07,-274.09499999999997,12377.25,-15561.18,-2175.48,2857.275
5364.179999999999,-28775.024999999998,-1293.975,-256.32,12241.8,-15642.63,-2169.09,2878.6949999999997
5288.715,-28822.725,-1311.84,-170.82,12552.705,-15570.449999999999,-2201.67,2801.16
5311.53,-28798.2,-1304.7749999999999,-223.605,12570.84,-15603.345,-2236.68,2810.6549999999997
5327.099999999999,-28777.274999999998,-1276.83,-203.715,12529.845,-15753.914999999999,-2281.77,2872.935
5214.599999999999,-28879.469999999998,-1304.5049999999999,-53.82,12912.164999999999,-15607.529999999999,-2329.29,2789.685
5243.535,-28902.914999999997,-1312.5149999999999,-145.17,12754.8,-15553.755,-2304.495,2817.9449999999997
5295.195,-28915.739999999998,-1326.87,-151.245,12626.73,-15558.164999999999,-2364.165,2852.955
5316.795,-28893.015,-1363.23,-174.015,12633.66,-15516.0,-2357.415,2841.8849999999998
5374.8,-28792.17,-1329.2549999999999,-358.38,12267.585,-15407.099999999999,-2284.1549999999997,2888.685
5331.6449999999995,-28777.05,-1304.415,-346.365,12127.185,-15345.855,-2262.6,2854.2149999999997
5264.235,-28851.344999999998,-1334.07,-125.82,12677.49,-15693.615,-2319.21,2801.025
5235.929999999999,-28873.215,-1340.055,-2.61,13008.644999999999,-15728.58,-2355.48,2760.255
5298.21,-28790.91,-1293.975,1.89,12944.43,-15652.71,-2390.895,2782.62
5352.66,-28741.23,-1295.6399999999999,-125.72999999999999,12715.064999999999,-15714.539999999999,-2351.16,2853.0899999999997
5355.135,-28770.39,-1302.93,-178.92,12597.3,-15654.555,-2363.04,2885.7149999999997
5359.635,-28805.129999999997,-1273.5449999999998,-227.97,12457.305,-15614.82,-2396.16,2907.855
5240.97,-28874.25,-1335.915,-266.265,12506.31,-15534.494999999999,-2376.27,2848.9049999999997
5148.045,-28964.34,-1309.05,-186.39,12699.359999999999,-15603.074999999999,-2385.63,2843.5499999999997
5038.785,-29249.235,-1360.26,-65.34,12793.32,-15637.59,-2339.325,2841.75
4958.099999999999,-29308.004999999997,-1440.7649999999999,40.589999999999996,12945.105,-15511.14,-2358.63,2766.69
5027.985,-29148.434999999998,-1452.51,-19.62,12892.635,-15470.64,-2371.0499999999997,2761.92
5143.095,-29005.605,-1404.0449999999998,-111.24,12729.285,-15445.17,-2334.915,2780.595
5301.675,-28825.02,-1305.27,-298.84499999999997,12332.16,-15332.535,-2404.935,2838.105
5469.66,-28671.57,-1224.8999999999999,-539.28,11830.05,-15484.14,-2390.4,2940.075
5537.925,-28568.655,-1197.225,-476.64,11967.57,-15628.814999999999,-2377.845,2904.345
5576.445,-28495.664999999997,-1209.4199999999998,-355.995,12106.8,-15676.65,-2510.19,2907.4049999999997
5513.13,-28590.254999999997,-1236.105,-146.385,12511.845,-15678.81,-2724.255,2910.375
5426.054999999999,-28665.135,-1179.855,1.08,12895.515,-15346.305,-2573.595,2828.295
5413.7699999999995,-28751.355,-1263.645,-66.91499999999999,12698.189999999999,-16092.359999999999,-2448.18,2937.33
5125.365,-29071.8,-1500.9299999999998,73.71,13248.404999999999,-15825.779999999999,-2513.16,2753.775
5153.085,-29020.454999999998,-1443.195,88.875,13217.13,-15526.349999999999,-2525.94,2740.41
5253.66,-28897.155,-1382.22,-24.119999999999997,12991.635,-15534.72,-2509.65,2799.4049999999997
5321.61,-28778.355,-1324.62,-96.75,12851.595,-15560.955,-2541.1949999999997,2818.575
5363.19,-28664.46,-1234.1699999999998,-128.20499999999998,12767.895,-15534.314999999999,-2547.855,2810.88
5457.42,-28560.329999999998,-1173.24,-176.715,12669.48,-15603.345,-2565.225,2850.345
5564.429999999999,-28460.969999999998,-1118.115,-237.51,12548.835,-15637.769999999999,-2616.8849999999998,2933.415
5591.925,-28444.995,-1145.835,-489.195,11955.645,-15553.845,-2482.56,2952.585
5654.835,-28430.414999999997,-1115.5049999999999,-423.71999999999997,11504.16,-15795.045,-2552.58,3045.645
5379.57,-28736.28,-1267.3799999999999,-14.445,12646.305,-15863.13,-2643.075,2864.835
5231.205,-28892.43,-1357.965,49.589999999999996,13352.805,-15690.24,-2630.475,2752.335
5287.275,-28791.27,-1264.5,1.035,13026.555,-15583.275,-2623.3199999999997,2782.845
5340.465,-28726.785,-1208.1599999999999,-3.645,12896.01,-15552.224999999999,-2623.275,2820.15
5359.679999999999,-28732.5,-1231.965,-58.14,12818.43,-15550.47,-2626.47,2839.3199999999997
5388.66,-28719.315,-1240.47,-110.78999999999999,12731.22,-15555.914999999999,-2622.285,2872.305
5401.08,-28719.0,-1261.305,-177.70499999999998,12631.859999999999,-15635.609999999999,-2620.89,2894.85
5370.525,-28754.55,-1287.945,-222.29999999999998,12582.63,-15682.994999999999,-2577.24,2884.23
5362.155,-28755.18,-1248.12,-113.22,12639.96,-15680.25,-2614.995,2871.0
5345.82,-28791.0,-1255.815,-54.18,12751.785,-15611.355,-2668.14,2856.285
5315.445,-28810.664999999997,-1272.24,-80.28,12732.119999999999,-15583.455,-2617.6949999999997,2834.325
5288.804999999999,-28803.195,-1282.77,-113.35499999999999,12696.074999999999,-15558.029999999999,-2610.81,2808.81
5291.639999999999,-28786.094999999998,-1277.415,-111.195,12696.705,-15539.67,-2623.95,2811.015
5321.115,-28755.989999999998,-1262.97,-123.615,12672.494999999999,-15537.15,-2633.04,2835.27
5364.224999999999,-28710.629999999997,-1242.54,-167.265,12572.46,-15575.31,-2631.87,2857.68
5412.15,-28649.07,-1185.93,-132.165,12576.51,-15496.244999999999,-2666.97,2877.525
5420.16,-28650.329999999998,-1198.665,-153.67499999999998,12609.585,-15390.945,-2679.165,2889.9449999999997
5455.98,-28627.695,-1198.215,-202.815,12497.895,-15596.82,-2686.815,2907.81
5515.605,-28580.579999999998,-1153.53,-231.20999999999998,12220.02,-15718.814999999999,-2691.81,2961.495
5406.48,-28746.0,-1287.18,-242.415,12390.164999999999,-15892.965,-2591.865,2939.4
5224.86,-28927.664999999997,-1370.115,-49.86,12977.144999999999,-15648.074999999999,-2631.87,2773.5299999999997
5269.23,-28898.82,-1327.86,-55.53,12880.125,-15549.345,-2619.855,2806.02
5289.885,-28889.1,-1334.25,-95.895,12762.63,-15554.744999999999,-2635.4249999999997,2849.535
5328.315,-28862.19,-1347.93,-125.19,12673.439999999999,-15478.064999999999,-2627.64,2869.92
5348.25,-28812.195,-1321.3799999999999,-217.44,12423.689999999999,-15386.22,-2627.2799999999997,2873.52
5376.6449999999995,-28736.055,-1266.165,-214.65,12445.109999999999,-15471.449999999999,-2677.95,2890.35
5372.054999999999,-28728.855,-1279.1699999999998,-152.325,12783.06,-15740.189999999999,-2691.765,2885.22
5373.8099999999995,-28717.2,-1261.665,-95.175,12762.045,-15723.855,-2693.115,2877.345
5381.1449999999995,-28697.94,-1230.93,-63.495,12762.045,-15698.205,-2721.7799999999997,2873.745
5359.41,-28696.68,-1215.495,-59.985,12788.46,-15616.17,-2742.39,2843.8199999999997
5340.51,-28727.37,-1234.125,-85.365,12720.285,-15616.394999999999,-2717.865,2844.3599999999997
5327.37,-28782.09,-1253.43,-108.85499999999999,12707.234999999999,-15555.24,-2681.865,2842.875
5324.804999999999,-28783.215,-1233.09,-140.85,12659.805,-15451.109999999999,-2695.995,2834.8199999999997
5337.495,-28729.53,-1205.73,-110.78999999999999,12607.064999999999,-15516.09,-2661.66,2836.5299999999997
5320.98,-28720.844999999998,-1221.165,-86.625,12676.41,-15704.955,-2651.49,2848.455
5299.245,-28745.864999999998,-1245.555,-101.42999999999999,12676.545,-15538.994999999999,-2763.6749999999997,2848.41
5326.29,-28743.93,-1278.72,-190.39499999999998,12512.475,-15635.88,-2738.88,2894.67
5369.535,-28700.325,-1274.3999999999999,-284.4,12519.494999999999,-15599.519999999999,-2721.6,2902.77
5449.005,-28606.59,-1189.7549999999999,-333.0,12379.14,-15600.24,-2731.095,2920.3199999999997
5401.889999999999,-28677.375,-1195.74,-133.38,12477.6,-15795.269999999999,-2739.555,2893.995
5264.1449999999995,-28829.34,-1298.0249999999999,23.4,12914.505,-15569.865,-2750.085,2777.04
5331.87,-28757.43,-1266.2549999999999,-82.8,12732.345,-15455.519999999999,-2678.805,2797.245
5398.47,-28707.254999999997,-1213.425,-30.959999999999997,12703.455,-15485.805,-2778.93,2847.69
5374.215,-28767.329999999998,-1279.08,-71.955,12782.115,-15691.545,-2738.6549999999997,2879.8199999999997
5332.679999999999,-28787.445,-1294.965,-103.77,12755.385,-15636.33,-2715.345,2836.71
5345.415,-28762.155,-1247.58,-67.77,12751.56,-15606.539999999999,-2753.595,2833.74
5380.155,-28730.114999999998,-1213.9199999999998,-66.825,12736.125,-15609.195,-2818.305,2868.975
5391.09,-28717.695,-1200.105,-86.94,12693.51,-15612.119999999999,-2808.495,2881.08
5395.23,-28720.305,-1230.7949999999998,-185.67,12509.055,-15651.72,-2774.7,2893.41
5402.565,-28728.989999999998,-1257.57,-224.73,12430.845,-15656.039999999999,-2734.02,2904.8849999999998
5330.97,-28869.48,-1301.6699999999998,-127.97999999999999,12683.07,-15629.445,-2743.29,2851.65
5285.16,-28922.355,-1318.86,-104.985,12755.789999999999,-15624.675,-2761.74,2815.9649999999997
5298.03,-28857.465,-1295.595,-128.34,12630.824999999999,-15564.734999999999,-2761.29,2843.055
5264.46,-28845.855,-1290.0149999999999,-67.14,12730.41,-15534.9,-2759.13,2813.13
5254.2,-28837.395,-1314.54,-114.92999999999999,12736.664999999999,-15584.76,-2749.5899999999997,2795.355
5274.855,-28788.93,-1291.32,-133.38,12700.08,-15574.455,-2792.6549999999997,2809.2149999999997
5301.9,-28777.274999999998,-1280.1599999999999,-155.385,12661.965,-15625.349999999999,-2815.9649999999997,2831.4449999999997
5362.11,-28767.735,-1262.655,-200.42999999999998,12557.654999999999,-15727.769999999999,-2815.1549999999997,2878.245
5372.46,-28752.344999999998,-1269.6299999999999,-207.54,12520.574999999999,-15743.07,-2807.73,2874.105
5355.63,-28724.175,-1287.81,-183.23999999999998,12603.51,-15664.095,-2815.29,2833.1549999999997
5355.36,-28719.09,-1286.235,-150.165,12598.695,-15643.17,-2812.6349999999998,2825.0099999999998
5364.72,-28713.78,-1271.205,-145.89,12553.38,-15598.529999999999,-2810.52,2829.5099999999998
5371.245,-28710.0,-1267.605,-138.64499999999998,12644.865,-15587.595,-2822.7149999999997,2832.0299999999997
5353.965,-28684.395,-1236.33,-90.53999999999999,12767.984999999999,-15621.885,-2825.0099999999998,2819.835
5351.715,-28681.065,-1220.805,-96.435,12712.59,-15582.105,-2835.45,2815.2
5359.995,-28741.68,-1242.7649999999999,-118.66499999999999,12655.305,-15549.119999999999,-2846.205,2835.765
5367.195,-28770.39,-1239.2549999999999,-141.48,12654.135,-15474.824999999999,-2858.49,2855.43
5412.87,-28727.1,-1239.2549999999999,-271.62,12406.814999999999,-15661.98,-2792.97,2909.97
5444.865,-28658.789999999997,-1200.69,-268.92,12242.744999999999,-15730.515,-2825.19,2928.285
5375.429999999999,-28714.14,-1250.595,-162.09,12536.145,-15763.455,-2850.93,2882.205
5266.17,-28806.344999999998,-1325.475,-129.64499999999998,12729.555,-15686.279999999999,-2790.99,2785.77
5273.46,-28784.204999999998,-1281.195,-53.73,12857.355,-15638.31,-2836.845,2768.67
5322.014999999999,-28745.73,-1252.7549999999999,-59.355,12825.09,-15636.644999999999,-2845.4849999999997,2807.055
5352.48,-28724.76,-1266.885,-93.69,12755.16,-15623.865,-2838.015,2828.7
5348.835,-28722.059999999998,-1290.78,-116.955,12710.699999999999,-15644.699999999999,-2846.475,2825.505
5351.355,-28720.664999999997,-1281.555,-112.455,12707.91,-15634.529999999999,-2849.895,2841.705
5357.295,-28714.545,-1262.25,-123.39,12680.865,-15664.635,-2868.0299999999997,2849.085
5372.235,-28700.414999999997,-1254.24,-133.875,12651.975,-15696.18,-2880.72,2859.345
5371.0199999999995,-28696.454999999998,-1244.07,-141.57,12636.045,-15699.599999999999,-2880.6749999999997,2857.275
5321.5199999999995,-28719.675,-1234.44,-134.23499999999999,12648.51,-15656.58,-2867.7149999999997,2838.825
5296.32,-28749.105,-1250.955,-137.07,12651.119999999999,-15628.68,-2860.515,2821.41
5301.315,-28760.085,-1274.355,-147.105,12642.029999999999,-15628.095,-2851.065,2816.0099999999998
5318.73,-28760.715,-1260.0,-122.94,12671.414999999999,-15581.34,-2848.3199999999997,2826.0
5327.37,-28774.44,-1204.245,-68.715,12733.965,-15514.83,-2855.835,2825.73
5332.86,-28778.129999999997,-1210.095,-88.92,12697.154999999999,-15533.505,-2855.205,2834.37
5336.73,-28767.015,-1251.585,-141.795,12642.66,-15482.925,-2875.995,2834.19
5409.315,-28689.704999999998,-1229.085,-181.665,12495.06,-15574.859999999999,-2897.64,2885.22
