ch_0,ch_1,ch_2,ch_3,ch_4,ch_5,ch_6,ch_7
18755.37,-15173.055,1942.425,4686.705,-20270.07,-26219.969999999998,16002.539999999999,-27801.27
18760.905,-15167.385,1948.455,4694.76,-20263.635,-26213.219999999998,16005.06,-27796.635
18762.255,-15167.25,1946.34,4695.66,-20262.51,-26211.6,16007.715,-27797.265
18757.62,-15173.685,1938.4199999999998,4691.97,-20266.2,-26216.73,16003.98,-27803.34
18761.985,-15168.51,1943.28,4701.195,-20257.695,-26210.295,16008.345,-27800.414999999997
18767.565,-15162.074999999999,1948.4099999999999,4710.24,-20249.415,-26205.344999999998,16016.265,-27794.789999999997
18761.579999999998,-15165.765,1940.6699999999998,4707.99,-20250.63,-26209.844999999998,16017.119999999999,-27798.48
18767.745,-15158.025,1943.145,4713.165,-20244.42,-26205.84,16027.244999999999,-27791.19
18774.405,-15151.814999999999,1945.98,4717.035,-20240.46,-26203.905,16033.769999999999,-27787.68
18774.989999999998,-15145.74,1952.9099999999999,4726.17,-20234.07,-26199.899999999998,16032.869999999999,-27792.945
18772.515,-15143.4,1957.4099999999999,4734.224999999999,-20230.02,-26197.379999999997,16034.67,-27799.155
18768.105,-15156.09,1941.75,4722.57,-20241.225,-26206.02,16035.345,-27804.239999999998
18771.795,-15161.445,1932.57,4718.745,-20243.79,-26205.66,16043.76,-27801.855
18775.53,-15158.744999999999,1936.0349999999999,4728.105,-20235.555,-26194.274999999998,16054.92,-27794.789999999997
18766.305,-15160.365,1937.1599999999999,4736.88,-20229.614999999998,-26188.065,16053.39,-27804.059999999998
18773.82,-15148.484999999999,1948.185,4752.855,-20216.114999999998,-26175.465,16058.43,-27803.52
18778.815,-15147.63,1949.22,4757.3099999999995,-20213.01,-26171.954999999998,16060.904999999999,-27801.045
18787.005,-15131.835,1956.5549999999998,4770.45,-20198.655,-26166.825,16058.385,-27801.809999999998
18795.96,-15119.324999999999,1956.4199999999998,4760.91,-20203.649999999998,-26173.215,16062.029999999999,-27794.52
18801.945,-15105.869999999999,1966.77,4771.08,-20206.71,-26184.375,16055.775,-27796.905
18807.704999999998,-15094.664999999999,1973.61,4782.6449999999995,-20205.63,-26185.905,16054.289999999999,-27798.39
18806.76,-15098.039999999999,1964.07,4777.335,-20214.945,-26191.44,16051.005,-27801.719999999998
18815.085,-15094.17,1968.6599999999999,4789.3949999999995,-20204.19,-26178.3,16059.15,-27796.41
18818.01,-15093.09,1969.9199999999998,4795.0199999999995,-20202.614999999998,-26175.015,16059.285,-27799.379999999997
18813.51,-15103.89,1960.425,4796.37,-20212.92,-26173.754999999997,16064.055,-27798.57
18795.149999999998,-15129.494999999999,1941.57,4789.575,-20219.895,-26170.739999999998,16071.345,-27796.77
18767.52,-15150.914999999999,1927.26,4784.3099999999995,-20220.434999999998,-26163.945,16079.894999999999,-27803.024999999998
18756.045,-15153.705,1922.5349999999999,4786.5599999999995,-20214.45,-26158.59,16083.045,-27811.17
18773.73,-15124.545,1943.235,4806.045,-20200.995,-26162.55,16074.855,-27811.17
18810.18,-15078.105,1979.73,4837.005,-20184.84,-26165.879999999997,16065.855,-27804.015
18830.925,-15060.824999999999,1987.155,4846.005,-20180.925,-26162.864999999998,16069.14,-27798.12
18821.7,-15065.595,1984.905,4847.355,-20181.78,-26163.27,16063.38,-27810.405
18829.44,-15063.525,1986.48,4852.665,-20174.805,-26155.035,16068.015,-27808.065
18825.255,-15071.715,1976.355,4843.349999999999,-20182.32,-26161.2,16063.92,-27816.795
18825.704999999998,-15070.095,1977.7949999999998,4844.295,-20182.32,-26159.895,16064.505,-27815.67
18825.21,-15069.33,1978.9199999999998,4850.1449999999995,-20176.425,-26152.739999999998,16069.455,-27812.789999999997
18827.954999999998,-15067.529999999999,1982.115,4860.855,-20165.265,-26140.5,16085.205,-27804.87
18817.515,-15086.025,1971.72,4858.155,-20165.715,-26131.68,16098.39,-27798.254999999997
18791.505,-15119.82,1944.81,4836.87,-20180.61,-26127.539999999997,16108.289999999999,-27800.73
18763.649999999998,-15147.18,1921.0049999999999,4817.745,-20194.695,-26134.289999999997,16101.494999999999,-27820.8
18783.855,-15119.234999999999,1941.6599999999999,4837.7699999999995,-20179.125,-26132.94,16097.175,-27819.629999999997
18833.625,-15061.859999999999,1977.885,4869.135,-20159.1,-26140.094999999998,16083.765,-27808.92
18863.91,-15019.605,2007.495,4897.575,-20146.184999999998,-26144.864999999998,16077.105,-27802.98
18860.085,-15017.175,2011.1399999999999,4906.035,-20143.079999999998,-26137.844999999998,16082.414999999999,-27805.545
18855.135,-15021.269999999999,2008.0349999999999,4911.48,-20140.829999999998,-26135.504999999997,16088.535,-27807.48
18848.565,-15027.39,2001.78,4914.945,-20138.399999999998,-26134.515,16091.73,-27813.239999999998
18852.524999999998,-15023.115,2005.56,4924.349999999999,-20129.94,-26124.795,16103.789999999999,-27810.09
18851.67,-15020.865,2007.3149999999998,4930.335,-20124.809999999998,-26120.655,16108.785,-27816.344999999998
18845.01,-15024.15,2003.9399999999998,4932.135,-20124.405,-26120.789999999997,16111.08,-27827.594999999998
18825.524999999998,-15041.07,1989.8999999999999,4924.035,-20135.52,-26132.175,16102.8,-27850.815
18807.344999999998,-15053.4,1981.98,4922.1449999999995,-20139.975,-26131.86,16106.265,-27859.364999999998
18799.11,-15071.715,1965.915,4911.57,-20148.57,-26129.61,16111.845,-27858.239999999998
18797.67,-15084.855,1953.3149999999998,4904.505,-20157.165,-26130.195,16114.904999999999,-27859.274999999998
18817.11,-15063.974999999999,1964.8799999999999,4925.16,-20139.57,-26123.895,16110.135,-27859.23
18849.375,-15042.33,1963.3049999999998,4920.255,-20137.545,-26127.539999999997,16104.96,-27850.545
18844.785,-15038.64,1972.485,4928.445,-20133.315,-26121.51,16111.305,-27842.129999999997
18834.12,-15051.465,1963.7549999999999,4928.3099999999995,-20135.204999999998,-26119.89,16113.689999999999,-27838.305
18824.67,-15055.109999999999,1966.0049999999999,4939.2,-20126.88,-26115.704999999998,16122.195,-27829.98
18823.274999999998,-15045.93,1978.335,4958.955,-20116.17,-26115.524999999998,16121.519999999999,-27831.6
18828.54,-15025.545,1998.36,4988.16,-20096.864999999998,-26113.86,16109.82,-27841.5
18830.7,-15024.689999999999,1995.48,4995.2699999999995,-20094.255,-26111.52,16112.699999999999,-27837.585
18835.92,-15021.494999999999,1990.08,4997.5199999999995,-20096.145,-26110.17,16112.97,-27835.2
18833.67,-15020.955,1984.23,4997.88,-20099.475,-26113.77,16110.045,-27838.844999999998
18836.415,-15018.885,1986.5249999999999,5004.36,-20091.015,-26104.454999999998,16118.55,-27832.23
18831.87,-15028.83,1972.71,4999.455,-20092.05,-26104.364999999998,16117.109999999999,-27836.145
18837.45,-15019.965,1980.945,5016.105,-20083.274999999998,-26097.93,16123.859999999999,-27825.254999999997
18831.6,-15018.93,1975.995,5016.69,-20088.765,-26104.184999999998,16123.095,-27824.219999999998
18830.61,-15007.545,1972.7549999999999,5021.37,-20086.29,-26102.879999999997,16126.47,-27816.57
18833.04,-14989.904999999999,1987.245,5040.8099999999995,-20071.485,-26092.125,16136.055,-27805.454999999998
18818.325,-14994.045,1984.6799999999998,5040.63,-20075.895,-26095.635,16137.404999999999,-27807.164999999997
18803.969999999998,-15004.98,1972.0349999999999,5029.605,-20085.84,-26101.125,16134.345,-27814.59
18809.46,-14998.994999999999,1976.6699999999998,5035.86,-20082.645,-26097.075,16135.695,-27814.05
18823.86,-14981.22,1997.955,5060.745,-20063.79,-26085.42,16140.96,-27810.675
18831.285,-14974.199999999999,1996.7849999999999,5067.855,-20059.2,-26084.969999999998,16139.025,-27814.32
18826.38,-14978.835,1980.585,5056.74,-20063.475,-26084.114999999998,16140.42,-27813.465
18817.829999999998,-14973.93,1990.1699999999998,5070.78,-20048.265,-26067.239999999998,16152.75,-27819.27
18809.64,-14980.005,1987.56,5078.565,-20044.755,-26064.495,16158.105,-27822.059999999998
18823.995,-14964.57,1998.81,5096.385,-20029.41,-26052.704999999998,16171.064999999999,-27805.995
18832.184999999998,-14959.305,1995.48,5100.705,-20026.755,-26049.105,16178.535,-27793.26
18835.245,-14962.814999999999,1989.945,5095.17,-20033.864999999998,-26056.215,16179.795,-27778.725
18839.835,-14976.404999999999,1983.735,5099.3099999999995,-20027.925,-26040.015,16201.394999999999,-27760.68
18829.035,-15011.324999999999,1953.72,5076.855,-20044.035,-26028.09,16220.16,-27750.149999999998
18830.43,-15016.275,1946.25,5075.235,-20041.605,-26010.09,16235.73,-27739.62
18835.559999999998,-14979.285,1980.6299999999999,5113.9349999999995,-20010.69,-26002.215,16225.605,-27753.704999999998
18858.51,-14917.14,2036.52,5173.695,-19964.34,-25995.105,16214.22,-27758.61
18889.559999999998,-14871.015,2066.535,5200.335,-19955.16,-26007.795,16214.58,-27741.195
18921.915,-14827.095,2099.79,5229.855,-19935.0,-25996.05,16229.609999999999,-27715.815
18934.335,-14816.07,2107.035,5238.764999999999,-19922.76,-25978.454999999998,16242.615,-27702.045
18945.719999999998,-14808.465,2119.68,5257.17,-19903.454999999998,-25954.875,16265.43,-27681.885
18939.329999999998,-14817.599999999999,2114.235,5257.44,-19902.285,-25950.105,16276.814999999999,-27678.465
18941.76,-14823.72,2106.36,5257.845,-19901.295,-25939.844999999998,16295.894999999999,-27660.87
18931.635,-14836.095,2096.325,5254.5599999999995,-19902.96,-25928.64,16314.615,-27647.19
18925.785,-14829.795,2106.765,5264.73,-19892.34,-25910.594999999998,16329.734999999999,-27640.934999999998
18932.309999999998,-14815.8,2123.73,5285.474999999999,-19870.29,-25895.655,16329.105,-27645.614999999998
18941.445,-14813.46,2130.165,5293.62,-19862.01,-25889.94,16331.67,-27641.385
18975.42,-14786.414999999999,2146.095,5311.98,-19847.07,-25883.37,16338.644999999999,-27623.114999999998
18990.495,-14762.564999999999,2159.505,5331.554999999999,-19828.35,-25873.605,16349.805,-27601.425
19003.95,-14736.24,2173.095,5344.47,-19810.17,-25863.12,16359.029999999999,-27580.274999999998
19013.04,-14708.25,2200.68,5371.155,-19787.13,-25844.715,16372.98,-27571.32
19008.719999999998,-14701.814999999999,2206.845,5385.375,-19777.86,-25839.945,16376.715,-27576.539999999997
19036.53,-14683.455,2217.285,5397.66,-19767.239999999998,-25830.629999999997,16388.46,-27557.594999999998
19055.969999999998,-14673.195,2221.38,5404.7699999999995,-19759.905,-25822.079999999998,16396.559999999998,-27543.059999999998
19043.73,-14681.609999999999,2214.36,5403.96,-19759.005,-25814.07,16403.94,-27542.565
19040.355,-14686.064999999999,2209.14,5407.0199999999995,-19753.2,-25803.495,16416.0,-27535.23
19032.57,-14690.925,2203.065,5407.514999999999,-19750.5,-25799.489999999998,16420.32,-27535.77
19040.67,-14672.519999999999,2219.67,5428.125,-19731.51,-25785.315,16429.23,-27524.114999999998
19040.04,-14660.144999999999,2233.755,5447.835,-19715.67,-25776.585,16432.829999999998,-27520.065
19037.835,-14655.195,2236.185,5451.885,-19713.015,-25774.425,16439.895,-27516.149999999998
19048.995,-14639.535,2248.1549999999997,5465.16,-19701.855,-25761.69,16459.2,-27497.7
19047.42,-14634.0,2249.955,5469.705,-19699.829999999998,-25761.914999999997,16460.55,-27495.045
19051.2,-14624.955,2255.04,5477.445,-19693.89,-25758.09,16459.92,-27490.14
19054.305,-14619.914999999999,2255.94,5479.245,-19691.864999999998,-25754.715,16458.57,-27485.774999999998
19056.149999999998,-14613.795,2259.855,5487.57,-19681.605,-25742.565,16474.005,-27475.155
19048.32,-14616.494999999999,2252.97,5484.96,-19683.719999999998,-25744.23,16472.97,-27478.17
19049.355,-14610.195,2252.52,5491.575,-19674.855,-25737.3,16477.47,-27472.995
19055.16,-14593.59,2268.0,5506.695,-19658.565,-25727.219999999998,16480.395,-27463.454999999998
19048.32,-14590.394999999999,2270.9249999999997,5510.5199999999995,-19654.425,-25726.86,16480.53,-27464.219999999998
19052.055,-14585.445,2267.145,5510.16,-19650.51,-25721.73,16499.61,-27453.645
19052.055,-14582.385,2267.955,5511.599999999999,-19644.3,-25711.469999999998,16513.335,-27440.91
19037.61,-14593.904999999999,2256.0299999999997,5500.98,-19651.364999999998,-25717.094999999998,16509.735,-27446.355
19041.66,-14583.015,2264.1749999999997,5510.61,-19640.25,-25709.355,16512.795,-27440.19
19039.95,-14589.494999999999,2252.16,5503.545,-19645.065,-25710.39,16513.425,-27436.41
19040.895,-14595.615,2247.0299999999997,5508.855,-19637.37,-25700.129999999997,16523.1,-27426.78
19036.485,-14604.345,2242.935,5513.67,-19631.024999999998,-25695.765,16525.845,-27425.34
19036.98,-14591.34,2247.255,5516.594999999999,-19623.375,-25693.965,16522.559999999998,-27428.67
19046.385,-14575.32,2257.1549999999997,5517.585,-19617.344999999998,-25692.524999999998,16519.23,-27423.809999999998
19041.03,-14567.894999999999,2265.12,5523.705,-19615.274999999998,-25693.965,16519.41,-27423.495
19038.239999999998,-14557.994999999999,2269.125,5535.8099999999995,-19607.04,-25693.739999999998,16513.739999999998,-27425.52
19039.905,-14545.035,2272.995,5547.915,-19597.77,-25693.649999999998,16512.57,-27426.465
19044.63,-14529.285,2277.54,5555.88,-19592.1,-25697.789999999997,16513.245,-27433.215
19052.28,-14517.359999999999,2278.485,5557.7699999999995,-19592.82,-25704.18,16508.655,-27442.215
19052.64,-14521.5,2272.5,5555.385,-19594.844999999998,-25703.46,16509.735,-27438.93
19052.864999999998,-14524.605,2268.855,5557.635,-19591.335,-25701.12,16508.925,-27435.78
19060.515,-14526.314999999999,2266.56,5562.179999999999,-19587.195,-25696.035,16510.454999999998,-27423.585
19053.36,-14536.755,2253.87,5557.139999999999,-19592.73,-25698.329999999998,16514.684999999998,-27422.414999999997
19033.469999999998,-14545.394999999999,2242.62,5551.155,-19599.795,-25704.989999999998,16509.195,-27441.27
19031.04,-14543.46,2239.785,5551.425,-19601.594999999998,-25708.545,16510.184999999998,-27438.254999999997
19035.18,-14537.07,2241.81,5555.385,-19598.355,-25705.89,16518.825,-27423.27
19018.53,-14553.494999999999,2226.105,5545.755,-19604.07,-25707.465,16527.149999999998,-27418.86
18982.934999999998,-14599.08,2183.85,5513.8949999999995,-19624.905,-25712.64,16533.18,-27423.045
18968.309999999998,-14625.72,2153.0699999999997,5488.38,-19642.005,-25717.995,16533.135,-27429.57
18964.755,-14626.71,2143.2599999999998,5480.01,-19649.07,-25726.364999999998,16522.155,-27444.465
18977.67,-14597.279999999999,2171.115,5511.285,-19623.78,-25717.23,16513.605,-27456.84
19005.21,-14559.21,2202.525,5545.575,-19598.76,-25714.575,16493.895,-27471.149999999998
19037.745,-14519.295,2232.9449999999997,5572.844999999999,-19583.19,-25714.934999999998,16490.79,-27457.289999999997
19036.62,-14509.35,2236.77,5577.66,-19586.204999999998,-25724.43,16488.945,-27447.12
19024.875,-14517.269999999999,2223.045,5569.0199999999995,-19590.434999999998,-25725.645,16494.03,-27439.92
19019.16,-14524.109999999999,2211.93,5561.55,-19592.82,-25725.96,16503.795,-27432.09
19013.13,-14531.355,2200.815,5553.2699999999995,-19596.78,-25729.289999999997,16508.52,-27423.719999999998
18997.965,-14550.93,2176.1549999999997,5532.03,-19613.43,-25739.19,16506.899999999998,-27424.079999999998
