ch_0,ch_1,ch_2,ch_3,ch_4,ch_5,ch_6,ch_7
-3636.855,-23982.165,12055.05,3004.335,11929.455,-16663.815,-15549.435,15210.314999999999
-3613.41,-24064.02,11976.029999999999,2938.77,11953.26,-16626.87,-15505.064999999999,15237.224999999999
-3563.5049999999997,-24245.415,11836.755,2934.27,11980.529999999999,-16593.345,-15477.345,15250.23
-3494.52,-24355.89,11708.685,2964.825,11984.625,-16594.155,-15513.48,15273.81
-3390.165,-24249.87,11803.77,3027.555,11957.715,-16622.595,-15552.81,15316.109999999999
-3344.04,-24146.55,11924.055,3063.375,11969.595,-16618.05,-15569.055,15314.13
-3338.91,-24050.835,12022.56,3070.89,11994.84,-16605.989999999998,-15575.49,15326.91
-3352.6349999999998,-24117.165,11977.785,3099.1949999999997,12020.58,-16596.989999999998,-15590.34,15346.935
-3323.205,-24155.55,11923.38,3085.1549999999997,12040.47,-16582.68,-15592.994999999999,15379.47
-3252.645,-24162.795,11927.789999999999,3078.4049999999997,12083.355,-16526.655,-15541.199999999999,15447.779999999999
-3178.755,-24037.245,11986.695,3072.06,12108.285,-16486.785,-15488.685,15503.849999999999
-3245.85,-24005.655,12083.13,3024.9,12098.97,-16481.745,-15495.164999999999,15462.045
-3396.4649999999997,-24173.504999999997,11984.984999999999,2897.145,12077.189999999999,-16464.015,-15483.105,15425.189999999999
-3447.81,-24226.92,11870.595,2948.58,12088.215,-16444.755,-15486.57,15456.555
-3474.54,-24305.535,11837.25,3024.54,12054.914999999999,-16445.565,-15476.805,15475.859999999999
-3518.145,-24369.434999999998,11740.41,2899.4849999999997,11958.164999999999,-16456.95,-15417.359999999999,15511.23
-3534.615,-24357.69,11698.74,2791.305,11939.58,-16439.04,-15386.715,15552.18
-3497.355,-24354.045,11668.635,2721.69,11947.904999999999,-16474.23,-15482.115,15539.039999999999
-3319.29,-24250.815,11806.38,2804.31,12016.845,-16453.44,-15497.46,15623.685
-3187.62,-24181.469999999998,11959.83,3017.025,12148.83,-16415.954999999998,-15508.71,15626.295
-3066.12,-24090.48,12052.755,3148.56,12244.14,-16402.995,-15544.71,15597.99
-2881.755,-24055.605,11975.265,3123.4049999999997,12230.64,-16417.44,-15564.06,15742.394999999999
-2820.24,-23989.905,11911.32,3105.27,12189.33,-16449.3,-15647.175,15823.619999999999
-2865.015,-24073.739999999998,11817.72,3099.645,12178.619999999999,-16471.125,-15668.279999999999,15852.105
-2869.9649999999997,-23984.46,11864.115,3057.5699999999997,12195.72,-16436.745,-15637.095,15903.72
-2886.525,-23986.079999999998,11831.535,2987.145,12199.5,-16408.755,-15604.605,15940.755
-2913.795,-23989.815,11888.324999999999,3011.4449999999997,12227.85,-16353.81,-15575.715,15969.644999999999
-2966.265,-23951.879999999997,12003.975,3065.7149999999997,12217.005,-16335.135,-15581.564999999999,15974.46
-2999.6549999999997,-23968.079999999998,11966.355,3104.0099999999998,12241.08,-16284.465,-15543.765,15997.05
-3033.495,-24057.855,11844.045,3033.63,12253.814999999999,-16232.939999999999,-15477.3,16040.025
-3076.02,-24115.14,11704.59,2908.71,12174.885,-16222.455,-15449.67,16063.019999999999
-3072.4649999999997,-24163.739999999998,11570.805,2778.39,11966.22,-16290.045,-15452.505,16098.66
-3017.43,-24190.245,11462.4,2588.1749999999997,11885.76,-16330.994999999999,-15456.105,16161.119999999999
-2890.755,-24058.35,11609.145,2529.27,11995.02,-16318.08,-15491.744999999999,16227.585
-2776.275,-23958.405,11684.744999999999,2750.895,12201.885,-16247.744999999999,-15511.769999999999,16312.994999999999
-2746.98,-24059.34,11518.244999999999,3049.56,12366.945,-16204.635,-15521.039999999999,16351.335
-2748.33,-24064.605,11488.41,3124.2149999999997,12389.58,-16238.654999999999,-15579.539999999999,16391.204999999998
-2780.1,-23907.239999999998,11806.47,3159.27,12382.515,-16226.55,-15597.765,16429.05
-2811.015,-23839.92,11955.734999999999,3142.2599999999998,12399.705,-16146.045,-15522.93,16505.91
-2872.44,-23996.969999999998,11762.279999999999,3114.3599999999997,12351.914999999999,-16142.984999999999,-15474.42,16546.995
-2960.775,-24254.864999999998,11398.994999999999,2997.1349999999998,12255.795,-16175.835,-15459.21,16522.11
-2906.0099999999998,-24141.645,11451.33,2912.49,12248.369999999999,-16153.605,-15449.535,16539.345
-2833.65,-23937.075,11573.01,2835.045,12261.105,-16136.279999999999,-15458.039999999999,16589.024999999998
-2806.065,-23997.42,11621.654999999999,2924.325,12299.445,-16132.05,-15518.97,16628.985
-2775.33,-24041.34,11597.22,2980.845,12333.555,-16112.789999999999,-15541.289999999999,16680.059999999998
-2736.315,-23863.32,11706.885,2977.4249999999997,12325.814999999999,-16134.615,-15568.154999999999,16758.09
-2717.505,-23929.515,11704.32,3040.92,12363.615,-16110.539999999999,-15560.505,16834.86
-2666.52,-24002.28,11536.109999999999,3099.7349999999997,12378.42,-16084.529999999999,-15537.555,16893.045
-2664.315,-23959.934999999998,11331.27,2959.6949999999997,12315.734999999999,-16093.305,-15506.64,16949.97
-2796.12,-24042.96,11316.33,2852.325,12264.705,-16065.09,-15481.394999999999,16957.71
-2944.2599999999998,-24139.53,11453.58,2883.87,12317.13,-15999.345,-15463.26,16950.735
-2935.44,-24126.254999999997,11478.06,2922.48,12357.27,-15975.135,-15448.545,17006.535
-2717.415,-23946.3,11477.295,2922.255,12407.13,-15956.595,-15456.644999999999,17126.28
-2506.455,-23882.579999999998,11487.105,2988.27,12445.335,-15956.595,-15482.835,17250.48
-2400.48,-23951.024999999998,11325.51,3019.095,12411.18,-15998.67,-15522.705,17344.89
-2342.475,-23821.605,11357.055,3039.795,12396.734999999999,-16015.545,-15579.314999999999,17406.63
-2320.245,-23698.35,11487.645,3082.23,12426.525,-16023.914999999999,-15590.34,17434.215
-2373.66,-23840.64,11465.46,3064.41,12444.525,-16038.765,-15624.269999999999,17446.23
-2420.91,-23856.524999999998,11380.994999999999,2984.04,12425.625,-16035.615,-15622.965,17492.489999999998
-2420.505,-23732.954999999998,11503.035,3013.65,12410.279999999999,-16030.08,-15596.775,17544.555
-2417.7149999999997,-23759.055,11524.949999999999,3062.205,12406.005,-16026.84,-15597.765,17615.655
-2417.085,-23729.04,11527.064999999999,3064.8599999999997,12413.385,-15983.595,-15589.394999999999,17694.63
-2480.67,-23725.62,11505.6,3023.055,12399.525,-15923.519999999999,-15546.465,17768.835
-2614.86,-23805.989999999998,11383.92,2962.845,12426.21,-15885.945,-15509.609999999999,17791.92
-2691.0899999999997,-23933.7,11209.77,2877.66,12475.484999999999,-15846.029999999999,-15475.545,17820.809999999998
-2675.88,-24089.489999999998,11184.885,2849.265,12495.734999999999,-15822.224999999999,-15482.295,17868.105
-2567.0699999999997,-24216.704999999998,11131.109999999999,2918.835,12485.385,-15843.24,-15522.029999999999,17962.245
-2377.62,-23912.37,11213.91,3041.505,12526.335,-15856.965,-15593.67,18068.76
-2217.4649999999997,-23589.54,11392.515,3106.17,12551.22,-15890.58,-15664.365,18159.704999999998
-2195.415,-23680.215,11256.48,3067.1549999999997,12551.13,-15907.814999999999,-15667.019999999999,18258.704999999998
-2199.555,-23845.545,11185.605,3040.02,12561.84,-15885.0,-15635.835,18289.485
-2134.7999999999997,-23690.204999999998,11278.305,3046.725,12573.63,-15861.914999999999,-15635.385,18364.14
-2194.065,-23616.629999999997,11305.08,3041.055,12515.76,-15939.72,-15759.269999999999,18408.059999999998
-2356.515,-23695.379999999997,11291.805,2951.19,12400.785,-16032.555,-15801.57,18428.219999999998
-2383.47,-23813.415,11268.945,2830.455,12358.71,-15990.255,-15695.73,18493.469999999998
-2403.18,-24033.285,11058.48,2784.375,12382.335,-15916.814999999999,-15645.33,18543.735
-2425.725,-24053.85,10710.81,2763.54,12405.33,-15876.359999999999,-15646.05,18569.385
-2486.16,-23925.555,10834.605,2767.9049999999997,12409.154999999999,-15882.75,-15689.07,18547.11
-2475.9,-23952.78,10915.785,2814.48,12454.199999999999,-15877.305,-15747.029999999999,18577.35
-2423.205,-24082.469999999998,10921.904999999999,2830.5899999999997,12471.435,-15874.244999999999,-15786.765,18653.76
-2391.5699999999997,-24205.86,10944.945,2781.63,12452.76,-15892.83,-15821.775,18707.76
-2365.065,-24140.655,10837.619999999999,2731.41,12424.05,-15921.675,-15846.525,18729.45
-2350.35,-24037.739999999998,10815.615,2720.025,12383.414999999999,-15967.26,-15881.715,18722.43
-2358.855,-24055.875,10916.279999999999,2719.35,12385.574999999999,-15976.08,-15911.055,18727.469999999998
-2344.095,-24080.895,10866.33,2685.285,12380.535,-15963.119999999999,-15912.72,18767.25
-2349.315,-24009.39,10764.135,2531.61,12228.795,-15997.769999999999,-15904.8,18805.545
-2435.94,-23964.21,10817.595,2524.005,12166.56,-16038.135,-15928.425,18810.36
-2613.87,-24111.135,10705.904999999999,2542.545,12176.01,-16027.244999999999,-15928.785,18811.035
-2722.14,-24210.945,10562.76,2492.0099999999998,12188.115,-16000.74,-15920.414999999999,18776.43
-2668.68,-24383.879999999997,10425.24,2390.94,12287.88,-15944.355,-15922.08,18779.355
-2541.96,-24353.145,10432.755,2483.64,12388.455,-15907.005,-15947.055,18841.5
-2394.9449999999997,-24094.8,10571.76,2626.56,12429.494999999999,-15934.41,-15997.32,18918.225
-2381.265,-24098.805,10636.83,2705.085,12452.715,-15970.5,-16053.39,18963.18
-2532.735,-24340.86,10616.445,2605.9049999999997,12326.355,-16089.164999999999,-16128.765,18968.309999999998
-2538.27,-24447.825,10536.885,2513.3849999999998,12278.609999999999,-16104.105,-16127.324999999999,18989.594999999998
-2418.705,-24357.105,10476.539999999999,2561.805,12375.494999999999,-16019.234999999999,-16092.314999999999,19044.135
-2302.6949999999997,-24103.44,10429.56,2583.4049999999997,12470.535,-15969.33,-16100.865,19100.969999999998
-2265.8399999999997,-23964.12,10526.085,2585.745,12475.08,-16014.42,-16164.539999999999,19124.055
-2323.845,-24045.704999999998,10560.824999999999,2632.995,12478.23,-16024.904999999999,-16176.285,19136.475
-2422.395,-24142.545,10461.69,2635.11,12519.494999999999,-15968.699999999999,-16129.89,19145.7
-2499.255,-24235.649999999998,10493.595,2612.25,12538.755,-15949.215,-16121.609999999999,19128.87
-2463.75,-24219.27,10435.859999999999,2480.7599999999998,12502.035,-15981.21,-16137.0,19141.245
-2358.81,-24129.495,10384.02,2356.83,12422.88,-16054.875,-16186.365,19228.815
-2277.315,-24174.0,10399.32,2329.02,12407.13,-16083.269999999999,-16241.445,19334.61
-2204.2799999999997,-24250.454999999998,10417.41,2428.83,12486.869999999999,-16020.449999999999,-16205.49,19422.899999999998
-2191.995,-24297.344999999998,10216.35,2374.56,12495.105,-15985.17,-16183.574999999999,19428.255
-2274.615,-24201.45,10270.125,2262.87,12433.904999999999,-16083.99,-16296.345,19313.64
-2302.1549999999997,-24176.43,10384.785,2353.23,12509.324999999999,-16102.439999999999,-16346.07,19284.524999999998
-2264.4449999999997,-24209.82,10313.279999999999,2394.18,12573.585,-16056.359999999999,-16316.64,19323.899999999998
-2265.48,-24143.94,10273.545,2373.75,12532.859999999999,-16088.849999999999,-16316.955,19313.145
-2273.085,-24053.489999999998,10390.949999999999,2289.7799999999997,12501.945,-16096.59,-16324.605,19309.68
-2294.5499999999997,-24114.015,10337.67,2258.055,12541.904999999999,-16044.39,-16329.96,19316.61
-2341.755,-24151.23,10309.545,2268.9449999999997,12584.07,-15994.619999999999,-16305.39,19320.434999999998
-2417.49,-24184.215,10299.96,2314.5299999999997,12599.82,-15995.699999999999,-16306.38,19313.73
-2461.815,-24220.89,10253.295,2290.005,12584.52,-15995.16,-16309.484999999999,19305.855
-2459.97,-24331.59,10287.225,2263.005,12589.605,-15977.654999999999,-16294.545,19303.515
-2475.495,-24439.004999999997,10230.119999999999,2174.4449999999997,12567.33,-15970.994999999999,-16269.119999999999,19314.63
-2537.91,-24486.39,10107.585,2054.97,12508.38,-15969.555,-16244.369999999999,19324.98
-2511.18,-24529.545,9723.105,1954.08,12511.125,-15977.97,-16234.65,19356.66
-2351.3849999999998,-24302.295,9561.51,1863.8999999999999,12547.935,-16005.15,-16295.805,19380.059999999998
-2241.99,-24185.79,9941.49,2107.035,12724.109999999999,-15984.314999999999,-16384.905,19374.704999999998
-2142.18,-24077.879999999997,10095.885,2340.765,12888.269999999999,-15969.015,-16471.35,19366.649999999998
-2024.01,-24043.635,9984.96,2408.7149999999997,12916.8,-15987.689999999999,-16502.22,19424.88
-2008.35,-24068.34,9939.914999999999,2353.005,12882.555,-16025.039999999999,-16509.149999999998,19507.005
-2070.99,-24093.809999999998,9880.74,2251.35,12860.865,-16050.24,-16505.595,19521.405
-2130.93,-24070.995,9915.255,2245.995,12892.725,-16022.34,-16487.505,19495.98
-2207.115,-23998.905,9891.9,2199.69,12885.57,-15992.099999999999,-16443.36,19490.76
-2313.99,-24054.254999999997,9837.135,2223.63,12929.715,-15944.039999999999,-16416.54,19444.23
-2316.645,-24368.67,9673.47,2223.855,12978.72,-15901.695,-16391.88,19459.62
-2199.915,-24470.37,9440.685,2059.515,12967.92,-15915.105,-16414.92,19530.045
-2107.395,-24125.579999999998,9649.935,2038.9499999999998,12991.005,-15971.894999999999,-16505.954999999998,19530.27
-2119.0499999999997,-24043.454999999998,9716.13,2133.63,13077.72,-15973.74,-16544.925,19501.785
-2121.795,-24135.93,9606.6,2106.585,13108.23,-15962.625,-16529.175,19520.235
-2100.555,-24145.065,9553.815,2027.52,13115.835,-15946.65,-16521.614999999998,19536.3
-2117.0699999999997,-24120.27,9619.109999999999,1997.55,13133.16,-15938.189999999999,-16521.434999999998,19530.855
-2174.67,-24060.015,9675.585,2039.76,13175.91,-15914.789999999999,-16501.364999999998,19528.92
-2257.56,-24011.145,9789.525,1981.26,13176.72,-15904.215,-16472.565,19501.425
-2290.9049999999997,-24262.829999999998,9675.045,1909.845,13145.31,-15898.814999999999,-16440.3,19472.219999999998
-2215.44,-24513.3,9322.38,1865.205,13116.96,-15903.9,-16444.305,19496.52
-2113.38,-24360.12,9243.449999999999,1745.37,13148.234999999999,-15902.73,-16498.755,19527.885
-2072.0699999999997,-23986.395,9736.92,1785.6899999999998,13127.4,-15970.05,-16580.7,19489.59
-2107.5299999999997,-24109.245,9723.24,1829.97,13139.144999999999,-15968.519999999999,-16547.85,19495.079999999998
-2111.58,-24314.805,9638.685,1829.0249999999999,13276.305,-15904.349999999999,-16533.225,19521.09
-2057.805,-24107.129999999997,9716.265,1846.08,13460.625,-15838.83,-16513.515,19551.735
-2010.735,-24025.05,9749.52,1958.175,13640.13,-15808.365,-16567.335,19531.755
-2062.935,-24160.274999999998,9603.855,2067.8849999999998,13631.31,-15868.08,-16634.97,19461.059999999998
-2096.64,-24152.76,9694.845,2074.095,13553.144999999999,-15888.689999999999,-16627.86,19446.03
-2120.94,-24080.895,9827.82,2052.63,13555.305,-15859.394999999999,-16595.505,19445.355
-2121.615,-24082.92,9864.09,2016.36,13606.83,-15832.439999999999,-16584.93,19460.745
-2121.345,-24068.655,9916.47,2038.77,13709.925,-15792.93,-16598.295,19465.11
