ch_0,ch_1,ch_2,ch_3,ch_4,ch_5,ch_6,ch_7
15003.72,1505.2949999999998,11068.109999999999,-3227.22,-117241.73999999999,-18984.059999999998,15135.974999999999,-11741.4
14991.119999999999,1498.32,11057.31,-3247.3799999999997,-117270.495,-19016.55,15138.045,-11750.49
14989.635,1498.5449999999998,11046.375,-3279.1949999999997,-117315.765,-19073.204999999998,15143.715,-11750.895
14990.984999999999,1495.53,11031.119999999999,-3314.205,-117372.15,-19135.844999999998,15146.91,-11747.564999999999
14989.904999999999,1498.2749999999999,11030.58,-3328.6949999999997,-117401.355,-19165.905,15135.435,-11753.369999999999
14999.939999999999,1508.22,11040.48,-3323.3399999999997,-117395.73,-19151.46,15128.144999999999,-11752.605
14999.31,1508.85,11045.025,-3303.855,-117360.495,-19110.87,15134.4,-11755.664999999999
14981.445,1496.8799999999999,11045.295,-3278.97,-117305.09999999999,-19050.75,15123.644999999999,-11775.24
14967.63,1495.26,11059.335,-3236.1299999999997,-117228.42,-18954.27,15111.09,-11790.81
14967.72,1504.53,11079.449999999999,-3202.9649999999997,-117181.845,-18896.67,15106.769999999999,-11794.14
14974.38,1516.905,11092.859999999999,-3196.71,-117187.965,-18911.745,15102.855,-11793.869999999999
14979.644999999999,1518.57,11088.09,-3214.2599999999998,-117223.965,-18954.135,15104.564999999999,-11790.18
14991.57,1521.405,11083.59,-3230.1,-117267.39,-18983.385,15117.705,-11775.914999999999
14991.795,1519.2,11075.67,-3247.29,-117302.985,-19006.605,15128.73,-11770.965
14978.115,1512.09,11065.32,-3264.165,-117312.525,-19020.6,15117.164999999999,-11786.535
14977.755,1509.21,11057.76,-3281.1299999999997,-117324.09,-19041.704999999998,15123.555,-11787.119999999999
14986.305,1512.81,11053.71,-3299.58,-117355.36499999999,-19075.005,15137.01,-11776.23
14975.865,1505.1599999999999,11045.609999999999,-3311.2799999999997,-117361.75499999999,-19084.14,15132.599999999999,-11786.085
14962.005,1499.31,11040.75,-3318.12,-117364.095,-19095.795,15118.154999999999,-11805.975
14951.385,1493.28,11035.395,-3319.92,-117367.11,-19099.844999999998,15094.664999999999,-11824.74
14948.055,1502.0549999999998,11059.785,-3274.785,-117313.69499999999,-19042.515,15067.08,-11843.145
14958.63,1518.615,11085.975,-3228.435,-117250.29,-18971.73,15056.73,-11847.285
14981.67,1531.53,11098.395,-3207.6,-117222.56999999999,-18939.015,15081.795,-11821.859999999999
14999.31,1536.57,11096.01,-3217.095,-117236.06999999999,-18952.11,15117.84,-11791.17
14992.019999999999,1535.31,11089.845,-3230.5049999999997,-117257.22,-18976.68,15115.904999999999,-11795.58
14987.609999999999,1532.655,11080.305,-3246.8849999999998,-117280.75499999999,-19004.219999999998,15120.359999999999,-11801.34
14988.689999999999,1537.9199999999998,11080.035,-3256.1549999999997,-117298.08,-19023.21,15121.305,-11802.96
14987.34,1539.135,11081.43,-3257.2799999999997,-117307.26,-19036.755,15119.46,-11806.47
14988.689999999999,1540.26,11081.699999999999,-3261.96,-117320.94,-19052.415,15124.545,-11806.335
14986.619999999999,1537.695,11078.775,-3268.4849999999997,-117329.04,-19060.559999999998,15124.994999999999,-11809.215
14979.869999999999,1532.385,11070.81,-3282.12,-117339.25499999999,-19074.645,15116.984999999999,-11817.225
14982.525,1531.125,11066.22,-3291.5699999999997,-117352.845,-19093.005,15121.845,-11813.49
14986.755,1530.7649999999999,11062.845,-3291.345,-117356.04,-19107.719999999998,15124.994999999999,-11808.99
14983.019999999999,1527.345,11058.795,-3292.4249999999997,-117362.565,-19126.755,15125.31,-11812.814999999999
14977.529999999999,1524.2849999999999,11051.73,-3312.54,-117396.405,-19158.975,15123.375,-11819.52
14974.74,1521.495,11044.125,-3333.42,-117421.605,-19171.755,15121.71,-11825.73
14981.715,1526.985,11045.789999999999,-3336.66,-117420.795,-19163.88,15130.484999999999,-11819.835
14972.939999999999,1520.685,11043.135,-3324.645,-117385.965,-19112.625,15126.48,-11828.16
14961.15,1521.72,11056.635,-3288.4649999999997,-117323.73,-19025.594999999998,15108.3,-11846.744999999999
14959.17,1534.77,11083.635,-3242.7,-117300.915,-18974.34,15093.045,-11859.615
14949.9,1533.645,11090.97,-3220.92,-117289.98,-18941.985,15085.71,-11873.43
14954.13,1536.6599999999999,11091.015,-3223.35,-117257.44499999999,-18938.07,15095.16,-11868.93
14967.404999999999,1546.02,11087.64,-3252.42,-117279.45,-19002.285,15108.84,-11854.439999999999
14970.105,1545.2549999999999,11069.46,-3305.115,-117381.28499999999,-19102.094999999998,15115.545,-11847.555
14976.539999999999,1546.695,11062.845,-3335.4449999999997,-117431.73,-19152.989999999998,15115.32,-11843.82
14986.71,1546.56,11058.029999999999,-3348.54,-117452.06999999999,-19172.114999999998,15118.244999999999,-11836.395
14992.56,1551.645,11070.585,-3322.7549999999997,-117422.415,-19136.655,15125.085,-11831.895
14984.234999999999,1548.27,11078.055,-3291.795,-117376.47,-19080.63,15107.67,-11847.779999999999
14968.26,1540.215,11075.039999999999,-3282.75,-117357.03,-19056.735,15094.035,-11868.164999999999
14970.599999999999,1540.35,11065.005,-3310.4249999999997,-117397.17,-19104.66,15101.685,-11865.195
14972.535,1538.46,11051.279999999999,-3352.0049999999997,-117444.915,-19171.53,15106.545,-11862.675
14973.66,1535.76,11038.859999999999,-3378.4649999999997,-117473.67,-19198.35,15119.055,-11857.14
14973.119999999999,1533.87,11037.555,-3368.565,-117464.94,-19182.96,15123.869999999999,-11857.68
14968.26,1540.53,11062.439999999999,-3310.92,-117392.985,-19125.855,15112.394999999999,-11869.289999999999
14969.699999999999,1546.11,11075.895,-3278.835,-117343.575,-19085.579999999998,15103.71,-11873.699999999999
14974.289999999999,1550.835,11081.97,-3274.245,-117337.68,-19070.505,15109.154999999999,-11870.505
14964.029999999999,1544.94,11078.685,-3278.79,-117335.79,-19058.76,15111.404999999999,-11880.359999999999
14955.164999999999,1538.685,11072.34,-3285.0899999999997,-117337.995,-19069.425,15101.955,-11892.689999999999
14961.42,1552.86,11087.279999999999,-3272.7149999999997,-117325.70999999999,-19066.905,15094.17,-11894.445
14966.685,1559.34,11086.56,-3281.355,-117340.29,-19061.594999999998,15100.605,-11889.404999999999
14961.285,1546.5149999999999,11063.654999999999,-3313.17,-117381.95999999999,-19088.055,15107.76,-11887.154999999999
14953.769999999999,1530.7649999999999,11039.939999999999,-3344.085,-117421.155,-19123.335,15110.685,-11890.484999999999
14954.31,1531.0349999999999,11035.755,-3360.4649999999997,-117443.15999999999,-19130.04,15107.535,-11895.3
14955.795,1536.48,11040.39,-3357.495,-117445.68,-19132.469999999998,15106.904999999999,-11896.515
14966.91,1550.97,11061.404999999999,-3325.8599999999997,-117407.61,-19107.495,15113.88,-11889.99
14975.055,1563.075,11080.395,-3297.825,-117365.44499999999,-19059.93,15113.385,-11886.21
14973.255,1573.83,11102.67,-3262.77,-117318.915,-19016.415,15100.109999999999,-11895.255
14956.109999999999,1561.6799999999998,11093.4,-3273.525,-117331.065,-19025.82,15091.65,-11916.404999999999
14953.5,1556.595,11084.31,-3294.27,-117356.48999999999,-19048.995,15089.894999999999,-11921.355
14961.96,1562.625,11088.585,-3295.89,-117357.97499999999,-19046.204999999998,15093.135,-11916.855
14966.369999999999,1564.335,11090.835,-3286.7999999999997,-117343.215,-19031.219999999998,15099.57,-11911.859999999999
14960.519999999999,1556.37,11081.97,-3288.69,-117344.34,-19033.695,15109.92,-11914.38
14955.345,1551.465,11071.71,-3309.705,-117377.055,-19065.87,15119.099999999999,-11918.88
14957.55,1550.835,11058.885,-3346.1549999999997,-117434.745,-19127.88,15121.619999999999,-11918.475
14967.449999999999,1560.5549999999998,11059.199999999999,-3366.72,-117477.58499999999,-19161.765,15122.295,-11914.02
14976.81,1571.04,11067.75,-3361.095,-117483.525,-19155.105,15118.154999999999,-11912.895
14982.029999999999,1578.105,11080.08,-3334.095,-117445.905,-19123.245,15121.349999999999,-11910.914999999999
14971.68,1569.5549999999998,11075.31,-3323.43,-117408.015,-19107.855,15111.18,-11922.84
14967.135,1575.27,11089.98,-3301.605,-117384.65999999999,-19088.864999999998,15099.615,-11934.945
14968.439999999999,1579.6799999999998,11098.484999999999,-3290.04,-117382.23,-19083.87,15107.894999999999,-11935.215
14960.699999999999,1567.7549999999999,11086.064999999999,-3298.185,-117384.93,-19096.829999999998,15111.9,-11941.47
14959.664999999999,1567.485,11079.225,-3310.29,-117395.775,-19111.005,15108.66,-11945.609999999999
14970.06,1572.345,11074.725,-3327.345,-117419.805,-19128.105,15113.609999999999,-11939.715
14972.894999999999,1566.585,11063.835,-3344.67,-117442.485,-19136.52,15117.974999999999,-11938.455
14960.385,1554.9299999999998,11055.645,-3343.95,-117430.605,-19103.535,15107.265,-11952.9
14957.189999999999,1562.76,11071.529999999999,-3324.24,-117406.125,-19076.085,15103.619999999999,-11960.414999999999
14964.615,1570.5449999999998,11078.414999999999,-3319.74,-117406.08,-19087.245,15114.33,-11957.895
14964.119999999999,1564.155,11072.43,-3319.29,-117399.23999999999,-19109.52,15111.314999999999,-11959.38
14968.529999999999,1568.655,11075.715,-3312.54,-117393.75,-19121.445,15109.785,-11959.515
14975.055,1576.08,11075.535,-3319.9649999999997,-117410.12999999999,-19147.32,15113.699999999999,-11957.13
14979.869999999999,1579.23,11069.189999999999,-3344.1749999999997,-117458.28,-19192.005,15111.224999999999,-11957.625
14983.605,1581.705,11068.785,-3353.49,-117476.81999999999,-19190.25,15112.845,-11958.75
14973.119999999999,1573.6499999999999,11059.695,-3362.67,-117484.37999999999,-19166.399999999998,15103.89,-11973.24
14961.96,1566.45,11058.57,-3352.5,-117459.98999999999,-19118.34,15101.279999999999,-11984.67
14962.275,1569.87,11066.895,-3341.3399999999997,-117441.405,-19113.344999999998,15101.234999999999,-11987.595
14973.074999999999,1579.185,11070.045,-3351.555,-117456.12,-19165.725,15112.394999999999,-11979.225
14990.984999999999,1594.935,11073.914999999999,-3370.77,-117494.37,-19236.645,15118.154999999999,-11969.055
14987.835,1590.7949999999998,11063.295,-3390.8849999999998,-117526.00499999999,-19256.94,15112.529999999999,-11977.154999999999
14977.484999999999,1581.9299999999998,11056.77,-3385.62,-117509.12999999999,-19236.015,15114.06,-11984.984999999999
14974.109999999999,1586.4299999999998,11066.445,-3365.145,-117468.045,-19183.274999999998,15106.185,-11992.41
14970.285,1583.6399999999999,11073.96,-3331.5299999999997,-117405.855,-19099.079999999998,15099.93,-11999.925
14963.76,1583.46,11082.96,-3306.4649999999997,-117377.14499999999,-19035.0,15091.875,-12010.14
14961.644999999999,1585.0349999999999,11081.609999999999,-3313.4849999999997,-117427.455,-19035.809999999998,15085.755,-12017.295
14967.765,1587.5549999999998,11080.755,-3314.295,-117451.75499999999,-19071.09,15094.17,-12012.795
14966.369999999999,1580.49,11065.005,-3339.495,-117449.415,-19128.87,15095.34,-12014.145
14968.394999999999,1584.405,11065.725,-3345.48,-117431.955,-19143.989999999998,15095.205,-12013.965
14971.68,1591.695,11074.14,-3334.9049999999997,-117436.095,-19125.315,15098.805,-12013.289999999999
14954.894999999999,1579.2749999999999,11068.965,-3330.18,-117428.67,-19073.34,15092.865,-12030.39
14947.695,1578.5549999999998,11079.27,-3308.1299999999997,-117397.75499999999,-19032.84,15090.48,-12038.715
14951.835,1581.705,11077.875,-3318.0299999999997,-117414.98999999999,-19070.594999999998,15088.994999999999,-12037.455
14963.445,1581.21,11058.255,-3362.22,-117480.375,-19145.565,15096.33,-12026.115
14969.654999999999,1583.595,11050.92,-3382.47,-117505.935,-19174.815,15098.535,-12021.029999999999
14970.96,1591.56,11060.73,-3374.415,-117493.065,-19168.425,15095.16,-12024.675
14964.345,1592.19,11070.18,-3345.165,-117444.64499999999,-19115.19,15094.035,-12035.88
14947.47,1579.95,11071.845,-3315.285,-117396.98999999999,-19059.93,15084.449999999999,-12054.734999999999
14950.439999999999,1586.79,11085.66,-3296.835,-117377.685,-19037.07,15080.984999999999,-12058.199999999999
14953.904999999999,1597.0049999999999,11096.955,-3292.785,-117378.72,-19042.785,15080.445,-12060.72
14956.47,1599.57,11091.914999999999,-3310.6949999999997,-117406.08,-19074.645,15083.234999999999,-12059.82
14964.93,1603.0349999999999,11083.859999999999,-3339.765,-117453.95999999999,-19130.895,15091.425,-12052.484999999999
14967.72,1598.85,11064.645,-3379.9049999999997,-117505.39499999999,-19187.82,15101.144999999999,-12047.265
14967.314999999999,1596.465,11053.484999999999,-3404.25,-117540.315,-19232.64,15101.73,-12054.6
14970.33,1601.01,11056.365,-3400.2,-117541.70999999999,-19243.215,15099.21,-12070.08
14966.685,1594.935,11053.17,-3382.335,-117503.955,-19198.485,15106.455,-12085.875
14962.41,1587.78,11049.93,-3361.41,-117463.815,-19145.969999999998,15103.755,-12104.505
14954.085,1591.335,11066.49,-3328.74,-117425.43,-19093.454999999998,15084.99,-12132.72
14951.295,1602.495,11085.21,-3304.395,-117394.155,-19042.02,15073.83,-12155.355
14956.74,1609.47,11089.484999999999,-3304.08,-117392.175,-19038.645,15081.66,-12162.06
14962.5,1612.62,11086.02,-3321.4049999999997,-117416.43,-19071.0,15079.904999999999,-12167.1
14970.375,1614.735,11077.56,-3345.48,-117451.03499999999,-19111.094999999998,15092.01,-12166.289999999999
14970.644999999999,1608.705,11062.8,-3366.54,-117479.745,-19152.405,15100.92,-12169.845
14973.974999999999,1610.46,11059.38,-3383.325,-117508.995,-19192.05,15099.39,-12173.76
14971.41,1612.98,11066.58,-3380.04,-117510.12,-19192.364999999998,15087.96,-12187.71
14964.885,1617.075,11077.83,-3359.6549999999997,-117480.105,-19155.645,15082.019999999999,-12204.0
14966.55,1620.1799999999998,11078.64,-3356.055,-117478.62,-19161.945,15081.39,-12213.18
14963.805,1608.615,11064.824999999999,-3356.775,-117467.595,-19142.19,15085.935,-12219.029999999999
14950.71,1597.455,11060.505,-3344.265,-117437.48999999999,-19089.585,15081.66,-12234.869999999999
14946.345,1601.37,11072.52,-3327.975,-117413.64,-19058.67,15076.529999999999,-12246.525
14943.015,1602.6299999999999,11078.369999999999,-3316.14,-117398.925,-19046.475,15074.189999999999,-12258.045
14949.81,1604.7,11069.64,-3340.2599999999998,-117431.90999999999,-19084.094999999998,15077.34,-12257.865
14963.849999999999,1611.0449999999998,11064.734999999999,-3358.17,-117461.51999999999,-19128.915,15085.305,-12248.505
14968.98,1617.435,11065.41,-3367.4849999999997,-117482.44499999999,-19155.465,15090.164999999999,-12248.414999999999
14969.43,1623.0149999999999,11067.66,-3376.4849999999997,-117500.22,-19172.52,15090.66,-12255.164999999999
14977.845,1635.165,11079.359999999999,-3374.0099999999998,-117502.01999999999,-19173.825,15082.019999999999,-12258.63
14979.599999999999,1638.45,11083.545,-3370.9049999999997,-117498.64499999999,-19173.78,15077.699999999999,-12263.625
14978.205,1633.635,11083.68,-3356.37,-117474.03,-19149.93,15084.045,-12266.955
14973.705,1629.45,11081.115,-3347.955,-117460.125,-19139.715,15081.255,-12274.875
14972.625,1630.98,11080.71,-3352.815,-117471.78,-19144.89,15092.775,-12275.189999999999
14970.869999999999,1631.0249999999999,11076.255,-3373.1549999999997,-117507.19499999999,-19171.844999999998,15088.769999999999,-12280.095
14972.76,1631.52,11066.13,-3399.615,-117536.76,-19198.53,15094.71,-12278.654999999999
14957.82,1617.12,11053.08,-3403.845,-117530.37,-19189.665,15087.555,-12294.765
