ch_0,ch_1,ch_2,ch_3,ch_4,ch_5,ch_6,ch_7
29239.92,-2841.48,-3219.0299999999997,-9135.765,-17423.595,-45860.715,12652.56,-12125.385
29244.195,-2838.645,-3214.89,-9130.545,-17415.27,-45853.2,12638.07,-12132.945
29258.01,-2839.68,-3224.79,-9140.805,-17424.405,-45863.865,12637.484999999999,-12134.789999999999
29259.855,-2843.64,-3232.4849999999997,-9149.13,-17434.079999999998,-45871.965,12632.984999999999,-12140.505
29268.45,-2834.0099999999998,-3222.45,-9140.805,-17425.17,-45863.505,12637.395,-12133.8
29266.559999999998,-2833.515,-3224.16,-9144.315,-17427.87,-45865.395,12635.46,-12134.835
29261.16,-2829.1949999999997,-3221.0099999999998,-9139.365,-17419.59,-45860.04,12642.39,-12130.695
29245.184999999998,-2841.5699999999997,-3235.815,-9153.539999999999,-17432.28,-45879.479999999996,12636.045,-12138.57
29235.42,-2845.62,-3238.47,-9156.555,-17433.495,-45891.765,12640.095,-12136.41
29236.77,-2840.94,-3235.095,-9153.539999999999,-17430.165,-45890.595,12649.32,-12129.93
29236.68,-2835.9449999999997,-3230.595,-9149.805,-17425.395,-45884.655,12644.955,-12134.52
29248.11,-2825.055,-3218.805,-9135.99,-17409.78,-45867.735,12632.175,-12139.064999999999
29259.045,-2820.69,-3218.355,-9136.529999999999,-17410.32,-45866.564999999995,12631.77,-12135.689999999999
29257.785,-2829.7349999999997,-3234.06,-9153.539999999999,-17427.915,-45881.145,12633.345,-12139.65
29261.07,-2826.9,-3232.845,-9150.029999999999,-17419.815,-45868.14,12641.67,-12134.88
29255.895,-2824.1549999999997,-3227.085,-9141.345,-17408.114999999998,-45857.34,12641.67,-12139.289999999999
29256.21,-2813.7599999999998,-3214.89,-9128.88,-17392.005,-45845.189999999995,12633.435,-12141.449999999999
29253.69,-2809.665,-3212.775,-9127.8,-17389.215,-45847.979999999996,12627.045,-12136.23
29240.64,-2817.765,-3221.865,-9138.33,-17399.745,-45860.715,12632.31,-12135.105
29233.62,-2823.975,-3231.4049999999997,-9147.779999999999,-17407.845,-45870.795,12631.41,-12139.064999999999
29229.3,-2831.58,-3241.935,-9156.869999999999,-17413.739999999998,-45878.04,12624.48,-12149.189999999999
29236.05,-2830.14,-3244.14,-9159.255,-17414.864999999998,-45885.915,12622.41,-12148.83
29250.09,-2820.105,-3238.3799999999997,-9155.654999999999,-17411.895,-45886.905,12628.98,-12141.045
29254.95,-2818.4849999999997,-3240.855,-9160.38,-17417.295,-45889.155,12626.055,-12140.73
29251.62,-2823.0299999999997,-3249.18,-9170.55,-17427.69,-45897.075,12618.72,-12147.84
29250.719999999998,-2819.565,-3242.205,-9161.369999999999,-17415.72,-45886.59,12619.574999999999,-12145.635
29242.844999999998,-2819.52,-3239.955,-9155.43,-17404.245,-45878.58,12623.085,-12145.725
29227.725,-2830.185,-3253.995,-9170.685,-17417.97,-45894.195,12618.27,-12153.24
29218.77,-2828.52,-3251.43,-9167.13,-17412.524999999998,-45889.29,12615.48,-12156.39
29221.11,-2819.0699999999997,-3241.4849999999997,-9153.494999999999,-17394.975,-45870.57,12621.779999999999,-12151.664999999999
29225.385,-2815.56,-3240.99,-9151.965,-17391.285,-45867.42,12623.13,-12151.08
29226.555,-2822.265,-3252.1949999999997,-9164.565,-17403.704999999998,-45880.604999999996,12615.93,-12156.615
29236.23,-2816.2799999999997,-3248.055,-9160.065,-17398.8,-45877.229999999996,12617.55,-12154.095
29236.77,-2821.6349999999998,-3257.2799999999997,-9170.865,-17407.98,-45885.24,12610.35,-12160.664999999999
29236.545,-2819.0699999999997,-3254.895,-9169.02,-17404.02,-45885.689999999995,12605.805,-12164.22
29236.635,-2814.0299999999997,-3249.495,-9163.484999999999,-17397.135,-45882.18,12607.47,-12161.97
29235.285,-2809.08,-3244.77,-9157.5,-17390.295,-45877.725,12617.055,-12151.845
29221.469999999998,-2813.13,-3249.045,-9161.55,-17393.085,-45884.79,12616.65,-12153.689999999999
29206.934999999998,-2818.08,-3250.935,-9163.08,-17392.86,-45886.95,12609.135,-12161.34
29211.344999999998,-2808.495,-3241.395,-9155.699999999999,-17383.23,-45878.04,12611.205,-12155.355
29215.575,-2808.9449999999997,-3246.5699999999997,-9160.605,-17386.02,-45881.595,12615.525,-12156.255
29212.559999999998,-2819.7,-3260.295,-9170.955,-17393.355,-45885.6,12607.289999999999,-12166.65
29214.45,-2821.77,-3263.7599999999998,-9173.925,-17395.29,-45884.25,12602.97,-12169.574999999999
29226.059999999998,-2814.255,-3260.115,-9173.43,-17399.204999999998,-45889.064999999995,12608.369999999999,-12163.455
29220.66,-2821.455,-3270.7349999999997,-9185.67,-17416.26,-45901.979999999996,12604.545,-12171.105
29216.07,-2821.545,-3270.105,-9186.84,-17414.864999999998,-45902.34,12608.01,-12169.935
29213.864999999998,-2818.2149999999997,-3265.56,-9182.565,-17405.1,-45897.93,12617.414999999999,-12163.59
29201.535,-2817.18,-3259.98,-9173.295,-17389.35,-45890.505,12597.525,-12173.31
29208.285,-2801.3399999999997,-3242.025,-9155.07,-17367.12,-45876.06,12603.375,-12160.8
29206.71,-2805.345,-3252.375,-9165.645,-17373.105,-45889.83,12610.17,-12158.595
29207.52,-2803.14,-3251.52,-9163.574999999999,-17368.739999999998,-45893.205,12606.885,-12161.789999999999
29208.149999999998,-2810.0699999999997,-3260.835,-9171.18,-17375.67,-45900.81,12600.27,-12167.64
29215.754999999997,-2807.2799999999997,-3258.6299999999997,-9167.085,-17369.954999999998,-45891.27,12605.76,-12165.615
29218.274999999998,-2808.72,-3264.5699999999997,-9173.295,-17376.075,-45891.09,12605.49,-12169.98
29214.18,-2814.39,-3271.77,-9181.755,-17384.94,-45897.615,12597.21,-12177.494999999999
29216.879999999997,-2805.795,-3262.68,-9173.97,-17377.155,-45891.72,12598.244999999999,-12173.039999999999
29214.09,-2802.69,-3261.06,-9174.914999999999,-17377.245,-45894.015,12598.92,-12168.0
29201.985,-2808.045,-3266.325,-9180.63,-17380.62,-45897.75,12598.83,-12168.359999999999
29194.065,-2808.0899999999997,-3263.58,-9174.914999999999,-17371.17,-45888.075,12603.42,-12168.314999999999
29188.44,-2812.68,-3269.52,-9178.965,-17373.915,-45892.305,12602.654999999999,-12171.689999999999
29182.995,-2818.62,-3275.955,-9185.445,-17379.585,-45900.09,12595.095,-12180.105
29193.03,-2812.41,-3271.365,-9180.72,-17372.835,-45894.104999999996,12596.715,-12177.359999999999
29199.285,-2814.795,-3278.9249999999997,-9189.675,-17381.565,-45902.61,12592.755,-12180.914999999999
29209.725,-2806.875,-3274.92,-9185.715,-17376.66,-45900.09,12591.63,-12178.484999999999
29205.945,-2808.765,-3278.565,-9188.19,-17378.235,-45904.545,12582.135,-12187.484999999999
29200.635,-2810.25,-3281.4449999999997,-9189.27,-17380.17,-45908.729999999996,12580.02,-12186.404999999999
29197.17,-2806.245,-3277.2149999999997,-9184.095,-17373.195,-45902.97,12585.015,-12183.119999999999
29182.86,-2816.64,-3289.77,-9197.73,-17385.614999999998,-45917.235,12577.545,-12191.445
29180.204999999998,-2811.375,-3284.0099999999998,-9192.24,-17379.09,-45913.77,12583.619999999999,-12184.695
29173.815,-2818.845,-3294.0899999999997,-9204.255,-17390.114999999998,-45926.28,12580.244999999999,-12189.96
29173.995,-2820.4649999999997,-3296.295,-9206.19,-17389.44,-45926.189999999995,12581.505,-12190.23
29183.219999999998,-2814.345,-3292.245,-9203.13,-17386.559999999998,-45928.215,12588.39,-12185.505
29188.844999999998,-2814.48,-3296.43,-9208.8,-17393.67,-45940.814999999995,12586.59,-12186.72
29186.325,-2821.365,-3305.3849999999998,-9218.07,-17400.69,-45946.485,12576.33,-12197.88
29188.754999999997,-2812.8599999999997,-3292.9649999999997,-9200.97,-17379.72,-45923.715,12576.465,-12197.699999999999
29191.454999999998,-2806.02,-3284.955,-9190.664999999999,-17367.524999999998,-45911.744999999995,12577.725,-12193.064999999999
29185.379999999997,-2807.505,-3288.285,-9194.67,-17370.54,-45914.67,12578.805,-12192.93
29173.14,-2812.77,-3292.1549999999997,-9197.82,-17370.09,-45915.345,12570.21,-12197.654999999999
29171.07,-2807.2799999999997,-3285.72,-9191.205,-17361.45,-45910.034999999996,12582.045,-12184.47
29164.725,-2814.48,-3298.815,-9206.73,-17378.91,-45929.924999999996,12580.02,-12187.08
29167.245,-2812.68,-3296.565,-9202.859999999999,-17373.69,-45921.195,12585.51,-12183.3
29172.149999999998,-2808.0899999999997,-3292.065,-9194.85,-17361.09,-45906.03,12580.02,-12190.32
29182.454999999998,-2801.115,-3288.42,-9192.195,-17356.905,-45905.625,12574.215,-12193.02
29189.16,-2800.755,-3293.46,-9197.82,-17362.035,-45912.555,12570.21,-12194.955
29185.965,-2806.515,-3299.805,-9203.715,-17366.175,-45917.325,12568.32,-12198.465
29179.53,-2811.69,-3306.15,-9210.869999999999,-17373.015,-45925.515,12565.035,-12202.289999999999
29175.21,-2806.74,-3300.165,-9203.895,-17363.204999999998,-45917.46,12575.52,-12194.82
29164.184999999998,-2807.8199999999997,-3299.04,-9203.175,-17359.02,-45919.215,12576.96,-12194.1
29158.875,-2805.975,-3295.98,-9200.115,-17354.385,-45918.945,12579.885,-12190.994999999999
29155.815,-2810.025,-3304.305,-9208.845,-17363.114999999998,-45929.43,12579.074999999999,-12192.39
29151.585,-2815.74,-3310.245,-9214.74,-17366.895,-45932.715,12574.98,-12199.185
29163.329999999998,-2807.055,-3303.4049999999997,-9207.675,-17359.605,-45926.82,12575.52,-12194.55
29164.14,-2815.1549999999997,-3317.805,-9221.715,-17373.78,-45940.5,12566.295,-12205.8
29186.46,-2790.81,-3291.12,-9193.904999999999,-17343.18,-45911.475,12575.07,-12190.77
29193.93,-2780.505,-3281.355,-9183.285,-17330.76,-45903.33,12580.244999999999,-12184.965
29179.035,-2791.17,-3292.6949999999997,-9193.095,-17338.815,-45912.284999999996,12566.97,-12199.14
29177.37,-2787.615,-3291.795,-9192.33,-17336.114999999998,-45910.259999999995,12571.965,-12191.49
29160.0,-2797.56,-3301.065,-9202.14,-17343.225,-45920.43,12569.085,-12199.5
29152.215,-2798.415,-3300.12,-9201.105,-17340.57,-45922.095,12570.795,-12199.455
29149.965,-2798.955,-3300.795,-9202.14,-17339.579999999998,-45923.805,12571.56,-12198.33
29148.704999999998,-2802.24,-3306.645,-9206.91,-17343.09,-45929.295,12564.945,-12204.404999999999
29156.805,-2797.1099999999997,-3302.775,-9201.6,-17336.565,-45922.77,12565.664999999999,-12202.515
29161.26,-2802.24,-3310.515,-9210.42,-17346.555,-45932.22,12559.545,-12208.68
29162.969999999998,-2802.915,-3312.225,-9212.265,-17346.329999999998,-45930.509999999995,12557.699999999999,-12210.885
29166.93,-2796.345,-3305.79,-9206.1,-17338.14,-45922.455,12563.46,-12206.564999999999
29161.17,-2800.2149999999997,-3310.3799999999997,-9211.77,-17343.045,-45929.25,12559.635,-12209.58
29157.704999999998,-2796.525,-3306.285,-9207.539999999999,-17336.43,-45926.145,12569.4,-12199.77
29146.77,-2801.0699999999997,-3310.56,-9211.949999999999,-17337.059999999998,-45930.509999999995,12572.234999999999,-12198.914999999999
29139.39,-2804.355,-3311.145,-9211.095,-17333.325,-45930.645,12568.635,-12203.414999999999
29133.539999999997,-2807.2799999999997,-3313.44,-9212.265,-17331.12,-45930.33,12554.775,-12216.645
29136.51,-2805.795,-3314.7,-9212.445,-17330.355,-45928.215,12551.31,-12218.805
29141.055,-2811.42,-3324.42,-9224.1,-17341.829999999998,-45938.025,12554.955,-12218.175
29146.635,-2815.02,-3333.42,-9234.404999999999,-17352.855,-45946.935,12557.205,-12217.14
29151.495,-2812.3199999999997,-3333.1949999999997,-9233.73,-17351.505,-45947.205,12551.355,-12220.064999999999
29157.075,-2802.24,-3320.415,-9219.33,-17332.695,-45931.005,12551.22,-12217.904999999999
29156.355,-2796.435,-3313.98,-9210.195,-17320.274999999998,-45922.049999999996,12541.545,-12220.74
29154.239999999998,-2790.855,-3308.265,-9203.265,-17311.14,-45914.58,12550.545,-12212.73
29138.129999999997,-2799.81,-3316.725,-9210.869999999999,-17315.1,-45921.645,12551.76,-12216.42
29130.795,-2799.72,-3313.5299999999997,-9205.244999999999,-17304.93,-45916.424999999996,12549.555,-12220.38
29129.625,-2799.4049999999997,-3312.9449999999997,-9204.435,-17302.14,-45919.395,12548.16,-12222.045
29129.085,-2799.72,-3314.43,-9205.83,-17302.86,-45925.74,12545.145,-12226.14
29133.045,-2800.575,-3318.525,-9210.15,-17309.43,-45934.784999999996,12537.18,-12231.585
29145.285,-2794.5,-3316.6349999999998,-9209.205,-17310.645,-45936.36,12542.58,-12226.77
29146.41,-2799.27,-3324.06,-9219.015,-17323.335,-45951.705,12534.255,-12231.72
29151.315,-2790.18,-3315.105,-9213.525,-17321.085,-45962.28,12535.875,-12226.365
29151.809999999998,-2782.71,-3307.545,-9206.055,-17314.245,-45968.58,12533.939999999999,-12225.33
29150.235,-2777.805,-3302.955,-9202.23,-17309.16,-45962.235,12532.5,-12225.24
29136.465,-2786.58,-3311.955,-9211.185,-17317.079999999998,-45964.755,12532.095,-12229.02
29131.469999999998,-2785.725,-3309.525,-9208.98,-17313.885,-45962.729999999996,12530.654999999999,-12226.949999999999
29132.19,-2781.1349999999998,-3305.745,-9207.18,-17310.375,-45961.244999999995,12529.529999999999,-12225.51
29137.23,-2775.825,-3298.9049999999997,-9198.539999999999,-17299.079999999998,-45949.14,12526.154999999999,-12226.77
29145.015,-2773.2149999999997,-3296.565,-9194.94,-17297.415,-45938.25,12525.119999999999,-12229.74
29154.96,-2773.62,-3306.33,-9206.595,-17314.47,-45945.314999999995,12528.494999999999,-12228.21
29158.245,-2777.895,-3317.805,-9218.925,-17324.595,-45952.965,12528.359999999999,-12229.154999999999
29156.309999999998,-2783.52,-3327.2549999999997,-9229.14,-17328.285,-45958.095,12528.72,-12230.595
29146.995,-2791.575,-3336.705,-9240.255,-17335.26,-45968.445,12523.949999999999,-12237.029999999999
29144.204999999998,-2787.8849999999998,-3334.23,-9237.42,-17327.88,-45961.515,12528.72,-12232.845
29134.98,-2793.4649999999997,-3339.81,-9242.279999999999,-17326.26,-45961.56,12527.01,-12234.06
29126.07,-2799.63,-3346.29,-9247.949999999999,-17329.995,-45969.615,12522.42,-12237.48
29126.204999999998,-2797.245,-3341.6549999999997,-9241.109999999999,-17320.77,-45963.72,12528.09,-12233.88
29125.079999999998,-2802.5099999999998,-3347.145,-9243.63,-17319.329999999998,-45963.045,12532.635,-12234.779999999999
29128.905,-2801.205,-3347.91,-9240.795,-17314.739999999998,-45956.25,12527.01,-12243.33
29140.11,-2792.475,-3341.9249999999997,-9236.115,-17310.78,-45950.67,12519.81,-12246.975
29150.684999999998,-2787.21,-3338.145,-9231.615,-17306.28,-45945.494999999995,12510.945,-12246.885
29144.204999999998,-2795.67,-3349.5299999999997,-9244.26,-17319.239999999998,-45958.049999999996,12509.279999999999,-12252.869999999999
29136.465,-2800.44,-3354.2549999999997,-9250.74,-17324.774999999998,-45965.025,12514.41,-12253.59
29133.989999999998,-2791.2599999999998,-3341.025,-9235.529999999999,-17307.0,-45951.03,12522.105,-12246.615
29125.35,-2794.365,-3344.49,-9238.77,-17308.35,-45956.205,12522.734999999999,-12246.66
29114.325,-2800.35,-3351.24,-9245.43,-17313.614999999998,-45963.225,12516.93,-12252.96
29115.585,-2793.015,-3344.67,-9238.545,-17305.155,-45956.34,12516.345,-12252.015
