ch_0,ch_1,ch_2,ch_3,ch_4,ch_5,ch_6,ch_7
7547.085,-1276.245,10860.345,-687.555,-131027.715,-15827.67,15622.38,-66743.45999999999
7535.924999999999,-1281.915,10859.31,-680.355,-131011.47,-15799.005,15626.07,-66753.855
7539.615,-1277.865,10862.279999999999,-677.52,-131012.955,-15796.935,15627.33,-66751.245
7537.005,-1282.905,10852.695,-696.3299999999999,-131042.43,-15828.119999999999,15627.42,-66752.235
7528.455,-1288.53,10846.17,-712.935,-131065.73999999999,-15850.26,15620.76,-66763.395
7526.79,-1285.335,10847.744999999999,-716.805,-131073.93,-15861.689999999999,15614.279999999999,-66767.535
7534.62,-1277.55,10851.255,-715.23,-131071.23,-15860.115,15620.535,-66757.455
7537.679999999999,-1275.57,10847.88,-721.17,-131078.79,-15875.144999999999,15626.699999999999,-66754.125
7545.0599999999995,-1268.55,10852.064999999999,-715.995,-131075.55,-15876.269999999999,15618.51,-66750.12
7552.889999999999,-1262.34,10856.385,-704.385,-131058.495,-15859.98,15616.394999999999,-66745.53
7558.785,-1249.29,10878.119999999999,-668.5649999999999,-131013.855,-15820.515,15624.09,-66743.28
7553.384999999999,-1244.475,10887.3,-651.1949999999999,-130994.86499999999,-15805.845,15620.535,-66753.94499999999
7544.924999999999,-1243.125,10888.965,-654.84,-131007.69,-15822.855,15607.845,-66767.175
7535.384999999999,-1250.28,10878.975,-669.51,-131025.015,-15840.855,15604.019999999999,-66776.625
7539.705,-1248.12,10873.215,-681.39,-131032.665,-15833.43,15607.26,-66772.575
7537.32,-1250.28,10868.265,-683.37,-131033.025,-15824.925,15605.685,-66773.565
7535.429999999999,-1251.09,10867.14,-684.63,-131040.94499999999,-15829.56,15606.224999999999,-66774.375
7535.655,-1248.705,10865.97,-697.14,-131062.00499999999,-15833.25,15608.205,-66776.44499999999
7540.785,-1241.28,10866.555,-709.02,-131081.715,-15847.965,15611.355,-66773.34
7541.775,-1239.615,10864.08,-716.49,-131096.07,-15866.865,15610.724999999999,-66772.575
7542.945,-1237.23,10868.4,-709.38,-131087.52,-15862.23,15610.68,-66773.79
7539.21,-1239.165,10866.33,-709.245,-131083.11,-15865.335,15600.51,-66781.8
7538.58,-1235.565,10871.414999999999,-696.8249999999999,-131061.915,-15855.119999999999,15601.005,-66784.275
7527.735,-1238.895,10876.005,-678.105,-131031.54,-15829.965,15584.984999999999,-66799.575
7518.554999999999,-1243.215,10874.385,-676.4399999999999,-131023.89,-15813.404999999999,15572.744999999999,-66811.005
7517.429999999999,-1234.35,10886.13,-662.895,-131012.14499999999,-15797.025,15567.164999999999,-66815.145
7534.665,-1219.68,10899.18,-655.515,-131009.76,-15786.09,15580.89,-66798.58499999999
7548.12,-1218.375,10892.295,-671.22,-131033.11499999999,-15806.205,15589.71,-66779.45999999999
7547.445,-1223.6399999999999,10884.42,-684.54,-131053.275,-15830.01,15599.789999999999,-66776.355
7556.174999999999,-1219.32,10882.935,-697.545,-131076.54,-15865.38,15621.345,-66768.03
7555.005,-1219.68,10878.345,-712.26,-131103.9,-15913.98,15624.945,-66768.66
7550.1449999999995,-1221.165,10868.445,-743.355,-131158.305,-15961.005,15618.96,-66776.22
7542.405,-1224.8999999999999,10855.17,-775.395,-131199.885,-15988.769999999999,15614.01,-66786.165
7540.38,-1226.115,10849.455,-788.5799999999999,-131212.08,-15991.605,15602.535,-66794.13
7542.315,-1216.1699999999998,10872.855,-751.005,-131172.525,-15942.555,15586.064999999999,-66803.535
7534.9349999999995,-1214.1,10898.189999999999,-687.6,-131080.86,-15817.59,15583.5,-66814.47
7515.764999999999,-1227.195,10897.83,-654.165,-131009.12999999999,-15736.41,15575.849999999999,-66832.47
7518.285,-1222.065,10900.125,-650.79,-131002.56,-15746.445,15579.81,-66831.435
7534.71,-1206.99,10898.595,-684.495,-131062.905,-15840.0,15584.4,-66816.72
7547.13,-1200.33,10888.875,-719.685,-131123.29499999998,-15929.144999999999,15593.445,-66801.825
7552.9349999999995,-1194.615,10887.48,-730.755,-131141.565,-15950.744999999999,15610.185,-66793.72499999999
7550.28,-1195.9199999999998,10878.435,-749.43,-131161.905,-15957.81,15600.555,-66801.105
7553.07,-1183.0049999999999,10895.355,-728.9549999999999,-131141.655,-15923.385,15587.01,-66808.665
7544.5199999999995,-1182.645,10904.805,-702.3149999999999,-131111.37,-15878.699999999999,15577.425,-66822.61499999999
7535.655,-1189.44,10904.939999999999,-687.6899999999999,-131089.905,-15837.66,15575.445,-66830.715
7530.21,-1188.0,10911.195,-677.97,-131075.01,-15811.875,15574.769999999999,-66834.63
7529.715,-1185.12,10914.885,-669.78,-131059.935,-15802.515,15577.92,-66834.72
7536.509999999999,-1178.1,10919.295,-658.0799999999999,-131041.53,-15783.029999999999,15586.199999999999,-66830.76
7534.665,-1181.97,10914.029999999999,-650.61,-131021.50499999999,-15750.99,15585.255,-66832.785
7534.125,-1180.53,10908.585,-671.9399999999999,-131056.69499999999,-15779.115,15589.349999999999,-66834.22499999999
7534.98,-1177.83,10897.695,-713.0699999999999,-131117.715,-15833.654999999999,15595.38,-66833.81999999999
7535.295,-1180.53,10881.27,-750.87,-131167.485,-15881.175,15595.83,-66832.245
7540.38,-1177.47,10879.785,-755.865,-131176.305,-15884.099999999999,15606.269999999999,-66825.94499999999
7535.16,-1170.315,10899.314999999999,-719.055,-131124.06,-15837.074999999999,15589.26,-66839.67
7530.57,-1156.725,10928.025,-668.34,-131057.325,-15789.644999999999,15571.98,-66853.17
7540.155,-1147.2749999999999,10936.305,-653.625,-131038.37999999999,-15787.664999999999,15575.085,-66845.79
7544.384999999999,-1142.325,10935.359999999999,-658.305,-131045.805,-15798.105,15577.289999999999,-66844.215
7540.29,-1140.2549999999999,10939.814999999999,-652.14,-131045.04,-15800.58,15579.81,-66851.09999999999
7537.634999999999,-1140.48,10939.14,-653.265,-131051.34,-15816.465,15581.025,-66852.98999999999
7550.28,-1128.87,10941.21,-665.64,-131077.035,-15836.445,15584.31,-66844.935
7551.63,-1125.495,10939.904999999999,-669.87,-131083.65,-15822.449999999999,15584.894999999999,-66847.95
7538.3099999999995,-1136.97,10930.23,-676.62,-131088.01499999998,-15810.345,15582.105,-66860.505
7534.62,-1130.355,10940.039999999999,-674.3249999999999,-131090.58,-15812.685,15580.215,-66868.245
7527.96,-1132.5149999999999,10933.695,-689.4,-131113.62,-15828.795,15573.96,-66878.595
7527.465,-1136.8799999999999,10919.789999999999,-712.17,-131139.945,-15852.734999999999,15575.445,-66876.84
7530.75,-1134.855,10917.945,-707.4,-131126.22,-15845.715,15577.019999999999,-66875.48999999999
7543.08,-1124.685,10933.65,-669.555,-131073.47999999998,-15794.414999999999,15589.394999999999,-66863.97
7540.38,-1130.22,10932.795,-648.54,-131034.42,-15748.65,15595.244999999999,-66863.205
7530.615,-1137.24,10927.664999999999,-650.43,-131030.54999999999,-15740.955,15592.05,-66873.23999999999
7528.545,-1133.19,10927.89,-666.72,-131062.59,-15783.48,15586.785,-66881.205
7541.325,-1117.98,10934.955,-677.2049999999999,-131094.405,-15841.08,15591.33,-66875.22
7535.295,-1125.585,10918.08,-702.9449999999999,-131126.13,-15891.75,15586.47,-66883.815
7544.16,-1122.615,10909.035,-723.51,-131150.745,-15921.945,15589.98,-66881.43
7552.3949999999995,-1123.245,10896.435,-745.92,-131180.445,-15936.93,15592.23,-66876.84
7556.759999999999,-1113.7949999999998,10909.71,-725.13,-131159.745,-15897.555,15595.289999999999,-66871.98
7550.1449999999995,-1110.105,10920.869999999999,-703.0799999999999,-131130.72,-15830.505,15593.13,-66881.205
7542.719999999999,-1106.9099999999999,10928.835,-692.415,-131126.58,-15811.38,15591.195,-66892.275
7534.08,-1104.48,10936.305,-680.67,-131113.71,-15806.025,15578.685,-66907.305
7533.179999999999,-1099.305,10944.675,-670.77,-131097.915,-15788.205,15570.63,-66915.72
7541.82,-1090.17,10948.77,-668.2049999999999,-131094.27,-15786.539999999999,15569.91,-66910.05
7548.255,-1087.965,10949.085,-658.665,-131075.505,-15772.365,15581.88,-66902.355
7542.495,-1090.7549999999999,10952.369999999999,-639.405,-131045.12999999999,-15736.32,15576.57,-66912.255
7526.61,-1102.905,10941.255,-641.61,-131039.055,-15735.869999999999,15571.305,-66929.08499999999
7529.58,-1106.6399999999999,10926.72,-675.18,-131086.88999999998,-15782.265,15578.955,-66925.395
7545.285,-1089.045,10934.82,-691.605,-131122.665,-15822.314999999999,15584.355,-66915.495
7556.804999999999,-1074.33,10941.66,-701.3249999999999,-131147.415,-15855.93,15586.56,-66907.755
7565.13,-1063.17,10950.074999999999,-693.405,-131146.875,-15869.699999999999,15579.63,-66906.855
7562.429999999999,-1064.97,10945.484999999999,-693.045,-131147.28,-15880.769999999999,15577.56,-66911.22
7559.37,-1063.305,10943.1,-704.475,-131162.76,-15904.08,15578.73,-66914.64
7566.884999999999,-1049.49,10958.445,-695.2049999999999,-131152.94999999998,-15909.164999999999,15576.21,-66913.65
7561.755,-1059.795,10950.164999999999,-691.785,-131129.145,-15877.935,15580.8,-66917.565
7560.405,-1069.74,10940.085,-687.42,-131113.71,-15843.869999999999,15575.31,-66921.795
7541.955,-1089.09,10925.055,-675.36,-131084.82,-15787.98,15567.48,-66940.83
7531.514999999999,-1100.475,10916.955,-670.275,-131071.31999999999,-15756.66,15572.744999999999,-66947.04
7540.469999999999,-1091.925,10922.13,-684.675,-131109.57,-15763.14,15586.289999999999,-66938.13
7537.905,-1084.05,10931.58,-682.3349999999999,-131112.225,-15748.38,15582.644999999999,-66946.68
7545.33,-1077.705,10936.89,-678.78,-131110.51499999998,-15750.494999999999,15582.285,-66943.98
7548.75,-1074.42,10937.025,-682.29,-131116.995,-15768.9,15583.635,-66940.875
7549.335,-1071.27,10933.335,-692.4599999999999,-131125.77,-15782.535,15582.555,-66940.65
7544.5199999999995,-1071.495,10927.619999999999,-701.3249999999999,-131135.04,-15792.48,15577.83,-66946.005
7551.09,-1058.58,10941.48,-688.23,-131121.225,-15785.505,15579.224999999999,-66945.23999999999
7543.349999999999,-1063.26,10942.109999999999,-674.865,-131104.305,-15774.345,15574.904999999999,-66957.03
7539.48,-1071.585,10936.529999999999,-668.295,-131094.09,-15770.789999999999,15587.144999999999,-66960.22499999999
7537.634999999999,-1076.5349999999999,10924.335,-692.595,-131127.345,-15812.189999999999,15588.855,-66963.42
7550.235,-1067.625,10918.26,-723.915,-131178.24,-15870.689999999999,15584.625,-66959.055
7561.349999999999,-1060.6499999999999,10911.51,-751.365,-131217.66,-15905.564999999999,15595.83,-66948.705
7557.525,-1063.98,10903.814999999999,-768.24,-131238.99,-15915.644999999999,15597.81,-66954.015
7546.1849999999995,-1067.94,10906.38,-757.035,-131221.395,-15887.699999999999,15593.58,-66969.315
7536.554999999999,-1073.0249999999999,10910.07,-733.275,-131183.72999999998,-15843.105,15579.539999999999,-66984.255
7537.455,-1061.5049999999999,10935.63,-688.68,-131134.905,-15796.845,15559.83,-66994.065
7547.8949999999995,-1042.425,10963.26,-649.0799999999999,-131091.57,-15764.58,15554.88,-66990.825
7550.28,-1052.145,10940.805,-680.22,-131126.175,-15806.519999999999,15586.875,-66977.55
7557.389999999999,-1045.35,10936.935,-700.11,-131155.965,-15834.734999999999,15593.4,-66973.095
7559.46,-1038.33,10936.845,-707.04,-131165.72999999998,-15835.185,15588.0,-66976.73999999999
7552.71,-1042.605,10929.555,-710.55,-131168.115,-15828.57,15587.955,-66985.69499999999
7550.82,-1040.85,10931.58,-702.18,-131162.985,-15825.779999999999,15590.16,-66989.7
7538.759999999999,-1051.74,10917.855,-713.925,-131172.975,-15832.394999999999,15587.369999999999,-67002.03
7544.07,-1049.625,10910.88,-734.4,-131202.04499999998,-15867.269999999999,15594.255,-66998.61
7545.285,-1050.885,10901.564999999999,-759.6899999999999,-131239.97999999998,-15897.375,15599.385,-66996.675
7556.759999999999,-1039.23,10915.425,-743.22,-131220.225,-15863.894999999999,15600.779999999999,-66989.06999999999
7568.505,-1020.555,10942.695,-699.48,-131162.26499999998,-15793.515,15587.279999999999,-66988.89
7560.855,-1020.24,10950.119999999999,-673.965,-131129.63999999998,-15775.154999999999,15578.279999999999,-67002.03
7563.375,-1019.79,10952.055,-666.4499999999999,-131117.805,-15768.63,15584.31,-67001.67
7562.7,-1022.7149999999999,10941.66,-683.415,-131133.06,-15778.845,15587.055,-67001.535
7554.825,-1031.895,10927.08,-704.0699999999999,-131153.35499999998,-15790.095,15590.609999999999,-67006.935
7551.405,-1030.095,10923.029999999999,-725.13,-131188.455,-15845.49,15588.314999999999,-67011.255
7555.005,-1024.875,10920.824999999999,-740.97,-131215.455,-15883.289999999999,15587.279999999999,-67009.905
7556.985,-1028.34,10910.34,-760.365,-131240.385,-15902.01,15595.92,-67003.245
7552.9349999999995,-1032.12,10903.545,-766.2149999999999,-131252.35499999998,-15905.295,15599.205,-67005.94499999999
7556.445,-1026.405,10907.055,-760.995,-131247.585,-15891.615,15589.574999999999,-67005.63
7563.33,-1017.63,10920.645,-738.0899999999999,-131217.165,-15844.095,15587.144999999999,-67002.345
7550.955,-1006.9649999999999,10953.494999999999,-687.915,-131148.99,-15771.195,15559.83,-67024.845
7532.19,-1016.64,10956.105,-670.14,-131121.09,-15751.484999999999,15556.455,-67045.545
7535.07,-1022.0849999999999,10946.34,-675.99,-131129.32499999998,-15764.894999999999,15568.785,-67045.41
7546.7699999999995,-1016.415,10948.859999999999,-675.405,-131130.63,-15766.605,15573.465,-67038.56999999999
7549.875,-1012.365,10951.38,-673.605,-131130.76499999998,-15765.3,15580.755,-67036.59
7546.545,-1015.1999999999999,10946.654999999999,-676.665,-131133.735,-15770.07,15582.195,-67042.17
7544.025,-1016.3249999999999,10947.105,-672.255,-131124.87,-15763.724999999999,15578.955,-67047.165
7541.009999999999,-1020.6899999999999,10939.41,-681.03,-131130.27,-15767.324999999999,15583.545,-67050.58499999999
7548.4349999999995,-1011.645,10942.605,-692.145,-131152.365,-15788.34,15580.394999999999,-67049.91
7560.36,-1000.17,10950.705,-689.49,-131159.34,-15791.22,15589.305,-67041.675
7557.4349999999995,-1003.86,10943.685,-694.485,-131163.435,-15793.74,15592.365,-67045.59
7549.5599999999995,-1011.915,10935.045,-696.555,-131157.72,-15783.345,15588.224999999999,-67054.14
7549.785,-1002.015,10950.66,-675.765,-131134.22999999998,-15758.595,15582.51,-67060.89
7546.365,-1001.115,10951.199999999999,-675.09,-131137.245,-15759.99,15580.215,-67066.155
7547.219999999999,-1003.275,10942.199999999999,-693.63,-131164.155,-15784.289999999999,15582.824999999999,-67064.31
7548.884999999999,-1005.03,10932.795,-718.515,-131199.345,-15811.965,15585.66,-67063.05
7557.344999999999,-999.0899999999999,10932.21,-724.635,-131210.19,-15822.045,15590.835,-67057.29
7561.215,-994.5899999999999,10936.484999999999,-717.345,-131203.44,-15820.83,15591.734999999999,-67056.03
7557.84,-995.895,10934.82,-718.38,-131201.055,-15817.904999999999,15588.539999999999,-67061.52
