ch_0,ch_1,ch_2,ch_3,ch_4,ch_5,ch_6,ch_7
-12091.455,-57594.015,-45399.06,-36037.08,-40143.33,-44156.115,149942.38499999998,7047.315
-12066.074999999999,-57559.454999999994,-45327.555,-35979.255,-40148.055,-44221.68,150088.005,7024.32
-12146.175,-57692.924999999996,-45459.09,-36102.15,-40218.255,-44412.255,150230.745,6990.389999999999
-12434.265,-57936.645,-45711.945,-36278.909999999996,-40342.994999999995,-44613.0,150330.41999999998,6843.33
-12106.26,-57476.655,-45285.93,-35817.84,-39838.365,-44156.34,150493.77,6860.88
-11931.84,-57408.03,-45297.0,-35846.955,-39737.159999999996,-43762.905,150649.56,7074.945
-12007.08,-57542.895,-45457.47,-36005.354999999996,-39844.395,-43721.009999999995,150774.75,7084.215
-12061.035,-57605.13,-45510.615,-36061.965,-39934.08,-43928.865,150918.07499999998,7033.23
-12065.715,-57599.685,-45502.965,-36072.0,-39945.78,-44028.045,151060.905,7017.344999999999
-12067.83,-57601.079999999994,-45507.015,-36076.545,-39956.625,-44065.395,151188.345,7006.995
-12080.744999999999,-57620.52,-45534.06,-36078.975,-40012.56,-44058.104999999996,151344.675,6991.155
-12085.695,-57627.854999999996,-45553.905,-36088.965,-40062.78,-44061.21,151498.97999999998,6980.625
-12089.835,-57629.97,-45569.025,-36113.58,-40086.81,-44113.005,151638.88499999998,6966.405
-12095.775,-57639.015,-45570.375,-36136.439999999995,-40108.32,-44235.674999999996,151774.245,6953.49
-12108.734999999999,-57641.939999999995,-45550.89,-36161.955,-40137.705,-44385.84,151905.285,6949.8
-12142.395,-57666.509999999995,-45550.215,-36152.369999999995,-40102.29,-44426.07,152021.88,6914.61
-12091.814999999999,-57614.04,-45510.795,-36053.82,-39960.18,-44169.705,152159.445,6912.405
-12141.494999999999,-57689.82,-45589.275,-36094.365,-39998.295,-44005.229999999996,152296.02,6883.605
-12076.47,-57610.17,-45522.81,-36044.46,-39960.9,-43924.32,152460.81,6930.54
-12081.42,-57620.204999999994,-45540.99,-36080.505,-39982.635,-43999.604999999996,152597.38499999998,6935.13
-12091.59,-57622.229999999996,-45548.055,-36079.335,-39979.665,-44029.799999999996,152723.29499999998,6915.195
-12092.939999999999,-57619.799999999996,-45554.939999999995,-36092.07,-39973.005,-44044.064999999995,152865.225,6904.035
-12100.904999999999,-57642.435,-45587.835,-36166.814999999995,-40006.845,-44071.515,153022.095,6894.675
-12115.484999999999,-57676.365,-45636.705,-36221.895,-40072.409999999996,-44122.95,153166.77,6882.21
-12175.199999999999,-57741.21,-45683.595,-36225.945,-40113.225,-44155.395,153301.86,6833.07
-12200.039999999999,-57739.32,-45634.32,-36154.89,-40105.71,-44207.1,153416.835,6773.4
-12034.439999999999,-57524.985,-45411.255,-35897.625,-39904.2,-44102.79,153549.945,6876.2699999999995
-12057.119999999999,-57570.345,-45466.244999999995,-35903.34,-39928.455,-44166.015,153676.88999999998,6892.38
-12109.904999999999,-57648.915,-45573.57,-36052.604999999996,-39986.865,-44175.015,153813.10499999998,6860.61
-12095.505,-57636.9,-45563.265,-36229.32,-40025.79,-44216.505,153950.625,6851.7
-12113.82,-57618.314999999995,-45509.67,-36285.03,-40058.729999999996,-44230.185,154092.465,6863.445
-12098.609999999999,-57592.89,-45486.945,-36201.195,-40083.659999999996,-44162.729999999996,154241.055,6821.37
-12087.945,-57600.18,-45514.665,-36114.119999999995,-40088.97,-44091.0,154404.44999999998,6795.63
-12080.07,-57570.704999999994,-45463.95,-36018.09,-40014.72,-44091.854999999996,154535.535,6809.13
-12108.105,-57610.079999999994,-45482.805,-36039.555,-40028.625,-44209.89,154665.04499999998,6799.905
-12167.955,-57695.759999999995,-45561.825,-36107.145,-40073.715,-44232.884999999995,154791.76499999998,6796.665
-12147.21,-57655.755,-45518.939999999995,-36056.88,-40030.38,-44230.32,154925.955,6752.16
-12124.26,-57632.715,-45500.22,-36066.869999999995,-40033.575,-44232.84,155070.63,6752.429999999999
-12155.085,-57672.45,-45530.189999999995,-36101.564999999995,-40007.88,-44082.854999999996,155207.565,6802.155
-12172.455,-57671.235,-45532.395,-36083.07,-39975.165,-44054.28,155347.695,6697.62
-12151.395,-57682.89,-45570.24,-36097.92,-39989.79,-44114.445,155503.665,6681.78
-12233.385,-57788.954999999994,-45691.515,-36239.04,-40075.29,-44195.67,155614.5,6663.195
-12155.4,-57658.049999999996,-45582.03,-36169.38,-39975.795,-44155.305,155741.445,6684.705
-12041.73,-57535.38,-45463.32,-36054.135,-39892.32,-44148.825,155894.805,6756.615
-12079.755,-57584.115,-45511.155,-36108.405,-39966.165,-44191.575,156020.26499999998,6687.36
-12038.175,-57555.134999999995,-45534.78,-36095.76,-40006.35,-44145.18,156153.645,6719.849999999999
-12056.715,-57580.47,-45594.09,-36108.765,-40022.775,-44161.604999999996,156281.31,6783.48
-12171.015,-57660.255,-45683.055,-36159.435,-40053.825,-44195.445,156411.495,6688.08
-12124.529999999999,-57661.02,-45644.939999999995,-36102.6,-40016.924999999996,-44197.2,156547.755,6615.8099999999995
-12113.145,-57629.115,-45502.02,-35964.54,-39866.13,-44028.81,156687.93,6608.295
-12119.805,-57635.954999999994,-45479.384999999995,-36007.02,-39889.125,-44035.515,156827.025,6645.6449999999995
-12134.925,-57663.225,-45523.755,-36098.909999999996,-39996.854999999996,-44227.845,156981.24,6632.82
-12074.85,-57599.235,-45467.369999999995,-36056.07,-39955.545,-44190.63,157129.65,6696.63
-12134.789999999999,-57664.89,-45535.005,-36148.814999999995,-39993.93,-44136.045,157241.565,6652.259999999999
-12129.435,-57649.86,-45549.494999999995,-36154.979999999996,-40022.415,-44169.75,157371.47999999998,6651.0
-12136.814999999999,-57649.14,-45606.915,-36154.619999999995,-40058.955,-44216.549999999996,157509.81,6617.745
-12147.029999999999,-57661.965,-45609.165,-36138.555,-40050.54,-44329.545,157638.78,6584.759999999999
-12143.16,-57713.895,-45622.979999999996,-36149.939999999995,-40065.795,-44462.07,157782.50999999998,6582.6449999999995
-12180.06,-57708.18,-45603.225,-36132.885,-40019.31,-44259.345,157923.13499999998,6571.755
-12266.055,-57793.409999999996,-45666.81,-36221.354999999996,-40059.9,-44188.2,158080.54499999998,6554.384999999999
-12022.92,-57510.405,-45354.509999999995,-35931.06,-39809.79,-44015.805,158250.06,6682.139999999999
-12114.945,-57590.729999999996,-45392.445,-35959.229999999996,-39874.994999999995,-44116.47,158386.185,6628.094999999999
-12097.755,-57580.829999999994,-45427.32,-35981.415,-39915.81,-44209.305,158509.935,6625.53
-12093.57,-57617.865,-45503.82,-36048.6,-39985.604999999996,-44311.59,158656.41,6626.384999999999
-12133.439999999999,-57654.045,-45532.395,-36068.49,-40020.21,-44302.455,158787.81,6589.44
-12198.105,-57701.79,-45555.21,-36111.15,-40116.78,-44462.655,158922.315,6521.985
-12130.83,-57594.104999999996,-45439.92,-36021.555,-40034.34,-44422.784999999996,159045.255,6532.605
-12019.23,-57478.77,-45343.755,-35949.24,-39905.82,-44269.56,159212.025,6630.165
-12139.02,-57657.015,-45555.165,-36168.93,-40070.07,-44395.155,159349.815,6584.219999999999
-12190.005,-57700.485,-45570.869999999995,-36146.025,-39984.615,-44119.71,159494.715,6522.974999999999
-12107.205,-57562.064999999995,-45423.18,-35989.244999999995,-39824.505,-43970.31,159636.195,6562.62
-12061.755,-57582.314999999995,-45473.13,-36051.345,-39887.595,-44130.195,159789.195,6589.08
-12090.195,-57643.47,-45576.45,-36129.645,-39904.424999999996,-44098.38,159914.475,6583.59
-12101.355,-57639.24,-45638.595,-36134.415,-39895.11,-44058.33,160043.49,6601.7699999999995
-12166.47,-57713.85,-45698.985,-36201.33,-40004.729999999996,-44264.475,160163.865,6579.675
-12285.72,-57838.095,-45773.369999999995,-36323.01,-40150.755,-44487.405,160279.83,6413.085
-12041.055,-57575.744999999995,-45494.685,-36081.54,-39960.765,-44351.189999999995,160430.445,6511.32
-12103.695,-57605.805,-45516.735,-36104.445,-40000.32,-44281.799999999996,160584.47999999998,6571.844999999999
-12178.71,-57690.405,-45569.34,-36131.31,-40026.689999999995,-44144.685,160714.845,6503.67
-12103.74,-57612.555,-45473.49,-36038.43,-39954.915,-44112.104999999996,160872.165,6542.55
-12107.115,-57633.39,-45545.31,-36087.705,-39964.14,-44164.799999999996,161002.395,6543.585
-12094.56,-57643.424999999996,-45668.88,-36244.71,-39984.795,-44180.145,161144.415,6554.745
-12113.82,-57671.549999999996,-45721.845,-36351.36,-40016.744999999995,-44197.965,161293.22999999998,6580.755
-12127.23,-57653.549999999996,-45630.54,-36269.505,-39976.02,-44240.58,161391.33,6510.014999999999
-12120.885,-57655.53,-45578.564999999995,-36199.17,-39960.63,-44287.064999999995,161558.00999999998,6472.9349999999995
-12160.529999999999,-57698.28,-45605.744999999995,-36221.805,-39999.33,-44271.765,161702.235,6470.55
-12212.82,-57725.64,-45598.86,-36186.39,-40069.89,-44415.494999999995,161816.31,6479.1449999999995
-12268.215,-57764.43,-45602.055,-36163.215,-40162.905,-44608.409999999996,161953.335,6406.83
-12199.994999999999,-57694.77,-45527.04,-36043.244999999995,-40001.49,-44318.52,162123.84,6358.32
-12227.265,-57736.979999999996,-45539.145,-36067.635,-39977.595,-44305.695,162255.735,6438.6449999999995
-11988.27,-57447.72,-45314.549999999996,-35877.6,-39791.025,-44236.305,162410.35499999998,6490.304999999999
-11975.939999999999,-57508.38,-45467.955,-35985.24,-39857.04,-44317.935,162576.36,6524.505
-12095.279999999999,-57678.435,-45696.15,-36143.369999999995,-39948.03,-44218.215,162722.655,6494.804999999999
-12135.645,-57737.564999999995,-45762.884999999995,-36123.21,-39930.93,-44044.604999999996,162865.665,6477.884999999999
-12178.935,-57777.75,-45761.58,-36161.235,-39957.795,-44151.884999999995,162997.56,6440.804999999999
-12226.095,-57783.06,-45683.729999999996,-36186.795,-40009.59,-44355.96,163120.41,6382.844999999999
-12134.115,-57627.9,-45444.104999999996,-36021.689999999995,-39908.7,-44330.22,163242.85499999998,6429.6449999999995
-12338.595,-57872.97,-45665.729999999996,-36283.365,-40219.155,-44603.369999999995,163368.09,6286.7699999999995
-12094.605,-57540.06,-45402.659999999996,-35989.695,-39953.34,-44259.03,163523.16,6401.34
-12035.97,-57517.695,-45414.0,-35965.53,-39888.945,-44186.805,163646.46,6523.5599999999995
-12182.76,-57651.93,-45494.235,-36045.314999999995,-39945.33,-44381.97,163767.06,6411.735
-12048.705,-57512.07,-45389.384999999995,-35955.54,-39783.015,-44120.43,163915.785,6442.875
-11976.93,-57531.24,-45449.369999999995,-36038.564999999995,-39813.165,-44058.24,164069.00999999998,6473.835
-12074.039999999999,-57660.299999999996,-45548.415,-36140.265,-39901.77,-44093.564999999995,164204.63999999998,6494.804999999999
-12123.585,-57698.954999999994,-45536.58,-36133.784999999996,-39935.79,-44197.92,164331.63,6460.155
-12147.93,-57698.009999999995,-45582.479999999996,-36117.54,-39944.52,-44241.03,164458.935,6412.41
-12111.705,-57616.965,-45580.409999999996,-36049.725,-39865.545,-44190.585,164575.53,6389.415
-12055.59,-57556.485,-45516.42,-36011.025,-39823.02,-44197.155,164717.91,6438.78
-12092.085,-57633.39,-45553.5,-36093.015,-39881.744999999995,-44314.11,164867.535,6432.21
-12092.445,-57617.325,-45514.755,-36098.729999999996,-39859.155,-44269.74,164991.33,6416.19
-12112.74,-57647.25,-45566.055,-36137.924999999996,-39849.525,-44161.47,165121.29,6420.509999999999
-12150.539999999999,-57712.095,-45641.205,-36148.59,-39888.494999999995,-44256.06,165259.71,6410.474999999999
-12161.52,-57710.61,-45618.615,-36106.424999999996,-39917.744999999995,-44327.7,165408.345,6395.264999999999
-12150.63,-57698.865,-45610.424999999996,-36131.22,-40000.994999999995,-44347.005,165565.25999999998,6392.474999999999
-12144.51,-57685.77,-45588.735,-36155.07,-40072.185,-44349.165,165704.75999999998,6387.525
-12131.505,-57652.515,-45533.924999999996,-36132.479999999996,-40133.115,-44357.805,165834.495,6385.094999999999
-12119.58,-57615.03,-45460.395,-36090.0,-40088.97,-44337.284999999996,165952.97999999998,6394.679999999999
-12151.305,-57654.314999999995,-45483.345,-36118.619999999995,-40021.155,-44333.729999999996,166092.615,6422.849999999999
-12163.23,-57654.494999999995,-45512.64,-36132.119999999995,-39945.24,-44300.97,166216.68,6347.07
-12122.505,-57617.415,-45494.009999999995,-36091.89,-39797.64,-44240.939999999995,166352.805,6333.344999999999
-12146.22,-57651.03,-45543.015,-36124.56,-39777.165,-44254.619999999995,166492.53,6345.8099999999995
-12149.775,-57666.6,-45550.845,-36097.784999999996,-39894.165,-44295.165,166645.485,6344.82
-12194.055,-57717.9,-45579.33,-36137.655,-40107.645,-44474.58,166759.245,6327.495
-12237.435,-57717.674999999996,-45577.125,-36186.299999999996,-40178.61,-44642.52,166885.19999999998,6283.8
-12094.695,-57594.195,-45509.759999999995,-36113.534999999996,-39983.445,-44306.549999999996,167048.145,6373.844999999999
-12025.26,-57571.244999999995,-45442.305,-35990.055,-39826.665,-44099.595,167173.56,6343.155
-12101.939999999999,-57609.36,-45460.935,-36003.645,-39848.895,-44201.295,167297.58,6336.495
-12141.539999999999,-57624.03,-45492.255,-36043.02,-39896.685,-44265.195,167445.495,6316.83
-12105.449999999999,-57587.895,-45451.575,-35993.159999999996,-39880.619999999995,-44354.07,167582.655,6318.179999999999
-12129.57,-57625.424999999996,-45478.305,-36050.985,-39989.7,-44661.33,167696.00999999998,6302.07
-12294.449999999999,-57864.689999999995,-45739.71,-36363.195,-40294.665,-44871.345,167817.78,6120.855
-12102.164999999999,-57542.715,-45419.805,-36047.159999999996,-39913.47,-44157.78,167997.41999999998,6254.6849999999995
-12116.205,-57635.145,-45518.985,-36125.369999999995,-39899.744999999995,-44070.119999999995,168157.44,6375.24
-12300.795,-57876.345,-45778.77,-36376.244999999995,-40132.215,-44448.75,168277.77,6259.455
-12104.955,-57616.515,-45511.244999999995,-36076.005,-39869.64,-44370.54,168411.285,6319.71
-11966.625,-57482.28,-45363.33,-35912.115,-39672.854999999996,-43992.674999999996,168578.595,6427.844999999999
-12137.13,-57669.75,-45547.74,-36097.56,-39837.015,-44106.615,168688.215,6286.7699999999995
-12151.215,-57673.439999999995,-45554.939999999995,-36116.189999999995,-39929.58,-44363.744999999995,168821.28,6274.844999999999
-12193.92,-57749.49,-45625.68,-36171.09,-39982.005,-44388.225,168946.65,6252.255
-11999.835,-57513.375,-45398.744999999995,-35950.409999999996,-39756.42,-44057.25,169117.02,6436.53
-12064.365,-57573.99,-45446.805,-35995.229999999996,-39785.67,-44049.689999999995,169259.13,6480.8099999999995
-12019.77,-57498.884999999995,-45389.52,-35944.74,-39713.939999999995,-43960.275,169384.815,6332.535
-12077.279999999999,-57650.265,-45556.65,-36120.555,-39903.84,-44208.134999999995,169508.835,6347.5199999999995
-12135.869999999999,-57685.14,-45573.479999999996,-36133.47,-39948.119999999995,-44383.365,169654.59,6348.69
-12140.055,-57680.055,-45580.455,-36137.655,-39939.93,-44398.71,169780.815,6308.955
-12142.17,-57707.189999999995,-45618.255,-36169.875,-39928.994999999995,-44259.165,169910.145,6264.179999999999
-12140.595,-57696.795,-45594.63,-36137.43,-39884.715,-44155.89,170042.85,6327.09
-12131.324999999999,-57676.95,-45565.155,-36115.47,-39909.104999999996,-44365.68,170169.705,6306.4349999999995
-12072.869999999999,-57564.54,-45439.784999999996,-36003.465,-39864.735,-44484.165,170313.88499999998,6331.094999999999
-12041.505,-57531.284999999996,-45412.424999999996,-35973.09,-39826.17,-44218.799999999996,170480.205,6346.485
