ch_0,ch_1,ch_2,ch_3,ch_4,ch_5,ch_6,ch_7
-16439.445,-38516.534999999996,151.82999999999998,-2858.355,-2643.5699999999997,-32649.975,-4427.054999999999,6955.785
-16439.355,-38517.119999999995,146.07,-2867.805,-2657.6549999999997,-32668.695,-4434.21,6951.825
-16429.995,-38502.945,156.195,-2863.89,-2664.495,-32684.039999999997,-4443.66,6952.634999999999
-16439.265,-38512.89,155.655,-2855.6549999999997,-2652.5699999999997,-32667.344999999998,-4443.57,6947.325
-16450.335,-38534.715,146.16,-2853.045,-2639.61,-32646.195,-4433.355,6947.73
-16454.565,-38546.64,136.935,-2858.67,-2642.49,-32647.184999999998,-4430.97,6947.505
-16447.14,-38539.17,135.63,-2865.69,-2655.495,-32663.295,-4432.139999999999,6951.0599999999995
-16441.92,-38526.435,141.885,-2869.56,-2668.5899999999997,-32683.635,-4441.679999999999,6947.73
-16432.515,-38509.155,158.85,-2856.15,-2660.7599999999998,-32682.149999999998,-4446.36,6950.384999999999
-16440.93,-38519.865,157.45499999999998,-2849.085,-2646.72,-32660.235,-4437.179999999999,6950.07
-16446.42,-38535.57,148.185,-2848.455,-2634.615,-32637.105,-4428.855,6952.634999999999
-16448.985,-38545.155,136.79999999999998,-2858.4,-2642.265,-32644.215,-4434.389999999999,6951.105
-16454.475,-38548.575,134.055,-2862.54,-2648.25,-32649.614999999998,-4437.72,6943.905
-16452.495,-38543.534999999996,136.53,-2863.845,-2655.63,-32660.28,-4441.23,6941.655
-16445.204999999998,-38535.57,140.355,-2864.88,-2662.9649999999997,-32671.62,-4446.855,6944.085
-16440.345,-38532.104999999996,140.76,-2863.935,-2662.29,-32673.375,-4452.03,6945.21
-16439.399999999998,-38531.34,143.685,-2860.92,-2664.54,-32682.239999999998,-4447.215,6947.28
-16427.745,-38523.689999999995,149.98499999999999,-2856.4649999999997,-2657.835,-32664.329999999998,-4440.42,6959.565
-16428.015,-38532.104999999996,136.48499999999999,-2870.505,-2666.88,-32666.309999999998,-4435.965,6962.13
-16433.055,-38538.314999999995,130.59,-2874.915,-2672.46,-32671.71,-4441.365,6956.73
-16433.235,-38535.435,140.13,-2859.795,-2652.2999999999997,-32644.215,-4441.455,6957.945
-16440.165,-38536.47,147.105,-2851.65,-2651.49,-32648.67,-4436.415,6954.4349999999995
-16443.945,-38540.07,142.605,-2856.87,-2660.58,-32659.92,-4441.455,6949.665
-16446.195,-38542.095,138.32999999999998,-2861.64,-2668.005,-32670.989999999998,-4446.72,6946.695
-16445.295,-38542.725,138.87,-2858.895,-2660.58,-32660.864999999998,-4445.639999999999,6948.0
-16446.69,-38548.53,133.74,-2862.765,-2661.8849999999998,-32658.39,-4442.445,6948.675
-16444.53,-38548.53,131.085,-2868.8849999999998,-2672.2799999999997,-32670.855,-4439.745,6951.599999999999
-16449.795,-38557.845,118.61999999999999,-2884.005,-2689.65,-32688.765,-4445.054999999999,6946.875
-16439.625,-38540.79,136.215,-2867.4,-2668.23,-32661.989999999998,-4447.125,6950.205
-16433.37,-38531.564999999995,145.755,-2854.575,-2653.47,-32646.78,-4446.764999999999,6954.03
-16434.405,-38541.96,133.875,-2866.995,-2668.095,-32661.539999999997,-4435.29,6960.554999999999
-16443.135,-38552.445,127.61999999999999,-2872.395,-2673.81,-32669.01,-4439.115,6954.929999999999
-16445.655,-38551.77,131.445,-2865.69,-2662.65,-32654.655,-4445.775,6949.53
-16439.805,-38546.369999999995,136.665,-2859.75,-2656.395,-32645.879999999997,-4446.135,6953.085
-16432.605,-38540.295,139.23,-2860.6949999999997,-2663.73,-32660.28,-4445.415,6957.63
-16438.815,-38555.055,120.10499999999999,-2885.31,-2696.625,-32702.895,-4439.295,6956.46
-16435.62,-38548.125,132.93,-2869.875,-2673.855,-32670.539999999997,-4439.5199999999995,6958.755
-16439.579999999998,-38548.799999999996,137.43,-2852.865,-2638.755,-32620.05,-4451.22,6950.745
-16439.67,-38550.555,131.04,-2864.6099999999997,-2655.54,-32644.44,-4457.429999999999,6946.83
-16441.425,-38557.395,121.905,-2874.645,-2667.4649999999997,-32656.86,-4450.32,6948.764999999999
-16451.055,-38568.015,121.455,-2870.505,-2661.0299999999997,-32647.41,-4438.755,6947.6849999999995
-16449.39,-38562.84,122.22,-2876.67,-2670.975,-32662.079999999998,-4454.639999999999,6941.969999999999
-16439.805,-38554.83,120.645,-2884.995,-2682.9449999999997,-32676.39,-4458.195,6946.605
-16441.245,-38554.56,126.72,-2874.42,-2670.255,-32661.855,-4454.639999999999,6946.92
-16456.23,-38568.825,122.85,-2872.17,-2667.4649999999997,-32660.235,-4451.355,6940.17
-16446.87,-38562.615,124.28999999999999,-2873.43,-2675.79,-32678.324999999997,-4449.195,6947.505
-16445.655,-38566.215,114.21,-2887.515,-2694.015,-32701.995,-4453.514999999999,6949.755
-16453.98,-38582.145,93.55499999999999,-2908.395,-2711.3399999999997,-32717.25,-4439.745,6946.74
-16437.465,-38555.549999999996,119.295,-2879.595,-2677.5,-32675.489999999998,-4456.62,6950.16
-16428.42,-38542.545,134.595,-2857.005,-2643.75,-32631.254999999997,-4460.715,6956.46
-16433.954999999998,-38546.01,143.37,-2839.995,-2624.13,-32614.785,-4455.8099999999995,6954.929999999999
-16434.945,-38544.57,142.965,-2844.99,-2636.73,-32628.105,-4462.335,6951.915
-16441.739999999998,-38549.115,141.885,-2843.2799999999997,-2633.7149999999997,-32619.96,-4458.554999999999,6947.505
-16451.954999999998,-38579.22,102.825,-2881.62,-2675.205,-32664.329999999998,-4443.929999999999,6948.134999999999
-16448.67,-38579.085,96.92999999999999,-2888.2799999999997,-2680.38,-32666.805,-4454.595,6945.884999999999
-16442.415,-38569.275,102.96,-2888.865,-2688.93,-32683.23,-4459.455,6947.505
-16443.945,-38571.705,96.47999999999999,-2899.755,-2704.5899999999997,-32700.329999999998,-4456.44,6946.785
-16443.27,-38563.244999999995,113.445,-2876.58,-2674.08,-32664.465,-4460.94,6944.535
-16440.48,-38555.549999999996,124.38,-2862.855,-2656.845,-32643.18,-4462.92,6945.344999999999
-16446.915,-38565.72,118.30499999999999,-2865.825,-2661.75,-32650.649999999998,-4460.58,6942.78
-16439.085,-38569.365,111.195,-2871.0,-2667.105,-32656.68,-4454.37,6952.724999999999
-16439.76,-38579.895,91.8,-2894.31,-2686.9049999999997,-32672.969999999998,-4452.84,6953.535
-16454.295,-38600.415,70.38,-2914.29,-2703.42,-32686.515,-4461.165,6941.61
-16460.864999999998,-38602.034999999996,80.145,-2899.5299999999997,-2687.7149999999997,-32671.17,-4461.57,6937.92
-16445.61,-38582.325,103.905,-2877.5699999999997,-2668.95,-32655.42,-4453.965,6949.9349999999995
-16439.895,-38575.755,109.935,-2875.365,-2672.73,-32662.395,-4454.235,6952.41
-16444.17,-38579.895,107.91,-2877.48,-2678.895,-32672.34,-4457.565,6948.0
-16442.595,-38577.825,106.92,-2881.89,-2686.815,-32687.28,-4459.05,6947.865
-16441.065,-38574.09,108.85499999999999,-2881.62,-2680.74,-32670.09,-4464.99,6946.2
-16446.195,-38578.905,102.825,-2886.39,-2678.58,-32660.324999999997,-4469.04,6941.79
-16444.44,-38580.75,103.095,-2886.12,-2678.805,-32663.879999999997,-4462.605,6946.335
-16437.69,-38572.83,115.02,-2874.4649999999997,-2666.745,-32653.17,-4463.415,6949.98
-16444.98,-38582.01,107.82,-2878.785,-2669.895,-32655.239999999998,-4464.855,6945.4349999999995
-16441.649999999998,-38579.13,101.295,-2897.505,-2703.69,-32703.3,-4462.2,6946.0199999999995
-16441.47,-38579.939999999995,93.50999999999999,-2910.375,-2716.83,-32714.19,-4465.889999999999,6942.509999999999
-16440.21,-38577.645,103.22999999999999,-2889.315,-2679.795,-32658.074999999997,-4482.675,6944.445
-16451.73,-38601.225,80.145,-2910.5099999999998,-2702.97,-32685.975,-4450.59,6948.99
-16466.04,-38626.064999999995,54.044999999999995,-2933.46,-2723.04,-32702.265,-4454.415,6939.045
-16449.975,-38599.064999999995,85.005,-2896.74,-2680.515,-32654.43,-4463.55,6943.905
-16446.6,-38588.265,96.57,-2884.5899999999997,-2670.48,-32647.274999999998,-4469.445,6941.745
-16447.815,-38587.994999999995,99.13499999999999,-2881.755,-2669.13,-32645.699999999997,-4471.11,6939.719999999999
-16442.64,-38577.689999999995,104.31,-2885.1749999999997,-2685.1949999999997,-32671.305,-4477.365,6938.594999999999
-16436.565,-38576.205,100.35,-2895.39,-2702.565,-32695.92,-4470.4349999999995,6946.335
-16445.745,-38591.955,89.505,-2892.15,-2684.3399999999997,-32665.725,-4473.99,6941.61
-16455.149999999998,-38605.68,81.0,-2897.0099999999998,-2687.22,-32667.975,-4457.385,6940.755
-16458.704999999998,-38611.71,75.285,-2907.63,-2702.16,-32686.245,-4462.155,6937.83
-16450.829999999998,-38593.665,95.895,-2885.4449999999997,-2678.895,-32663.25,-4476.105,6936.795
-16441.695,-38585.744999999995,97.02,-2887.1549999999997,-2680.2,-32663.07,-4468.815,6944.715
-16444.17,-38588.04,92.475,-2895.075,-2690.0099999999998,-32676.57,-4472.235,6941.07
-16450.965,-38603.07,86.80499999999999,-2890.17,-2673.99,-32652.36,-4472.55,6937.695
-16448.489999999998,-38611.305,76.185,-2900.97,-2684.745,-32662.98,-4465.17,6943.995
-16442.235,-38605.455,76.455,-2907.9449999999997,-2694.7799999999997,-32676.57,-4464.764999999999,6946.425
-16437.329999999998,-38597.534999999996,83.34,-2905.38,-2695.68,-32679.18,-4466.429999999999,6947.91
-16435.98,-38591.729999999996,93.285,-2896.65,-2689.11,-32673.149999999998,-4470.795,6946.92
-16433.595,-38589.345,97.695,-2891.115,-2682.54,-32666.489999999998,-4468.724999999999,6949.889999999999
-16438.32,-38596.725,94.32,-2890.17,-2678.4,-32659.425,-4466.565,6948.0
-16445.97,-38612.385,77.58,-2905.92,-2692.035,-32666.805,-4462.74,6944.985
-16448.85,-38612.835,78.48,-2906.64,-2696.7149999999997,-32674.995,-4471.155,6942.554999999999
-16445.295,-38609.549999999996,77.39999999999999,-2908.7999999999997,-2698.56,-32677.559999999998,-4471.5599999999995,6943.455
-16443.855,-38610.45,71.05499999999999,-2916.54,-2704.3199999999997,-32680.71,-4468.23,6944.355
-16437.87,-38603.52,74.835,-2916.1349999999998,-2704.6349999999998,-32680.98,-4466.474999999999,6947.639999999999
-16438.364999999998,-38598.659999999996,79.785,-2913.5699999999997,-2702.745,-32681.475,-4480.245,6940.259999999999
-16437.825,-38599.92,83.02499999999999,-2907.045,-2695.815,-32674.094999999998,-4477.32,6943.995
-16455.195,-38619.765,72.855,-2911.005,-2697.12,-32671.44,-4474.755,6937.425
-16463.114999999998,-38631.689999999995,66.96,-2914.245,-2698.9649999999997,-32672.745,-4473.0,6934.32
-16444.98,-38613.869999999995,71.595,-2918.565,-2708.415,-32687.145,-4474.845,6942.78
-16435.215,-38604.42,76.455,-2914.1549999999997,-2702.25,-32677.11,-4476.915,6947.955
-16435.845,-38609.955,71.46,-2918.3399999999997,-2704.9049999999997,-32680.934999999998,-4473.0,6950.07
-16446.69,-38621.97,63.044999999999995,-2926.71,-2712.33,-32686.155,-4468.545,6944.085
-16449.12,-38619.674999999996,71.36999999999999,-2912.895,-2690.37,-32652.36,-4475.745,6942.599999999999
-16442.505,-38609.055,82.61999999999999,-2904.165,-2688.2999999999997,-32657.895,-4475.79,6945.3
-16435.755,-38598.84,90.63,-2897.73,-2688.165,-32663.114999999998,-4477.139999999999,6947.73
-16434.989999999998,-38604.689999999995,76.27499999999999,-2913.39,-2701.305,-32673.059999999998,-4473.2699999999995,6951.014999999999
-16441.335,-38617.56,61.695,-2925.9449999999997,-2708.73,-32678.864999999998,-4475.61,6946.335
-16444.35,-38616.975,70.065,-2916.495,-2703.6,-32685.975,-4484.25,6942.014999999999
-16448.94,-38624.939999999995,68.58,-2912.805,-2695.41,-32669.864999999998,-4474.9349999999995,6943.995
-16451.864999999998,-38631.24,58.544999999999995,-2920.455,-2693.61,-32654.07,-4474.485,6941.61
-16448.625,-38627.415,59.985,-2923.1549999999997,-2702.43,-32670.36,-4476.42,6942.78
-16446.465,-38626.965,63.809999999999995,-2917.17,-2696.805,-32665.995,-4473.9,6945.615
-16445.34,-38622.78,69.12,-2911.68,-2692.755,-32660.37,-4475.429999999999,6945.75
-16442.55,-38618.145,67.32,-2918.475,-2702.9249999999997,-32673.96,-4476.6449999999995,6946.155
-16447.59,-38622.06,60.93,-2926.08,-2710.2599999999998,-32679.36,-4482.315,6940.53
-16450.245,-38625.84,57.555,-2928.5099999999998,-2711.3399999999997,-32678.414999999997,-4485.465,6937.785
-16449.12,-38628.18,56.745,-2929.455,-2711.115,-32676.344999999998,-4482.315,6940.17
-16449.165,-38626.83,55.08,-2936.3849999999998,-2719.98,-32688.495,-4488.165,6936.66
-16441.38,-38618.055,68.355,-2923.245,-2708.19,-32682.87,-4487.49,6940.889999999999
-16448.67,-38629.755,66.87,-2919.5099999999998,-2701.44,-32674.545,-4485.69,6938.865
-16451.01,-38637.99,60.254999999999995,-2925.4049999999997,-2705.04,-32672.745,-4485.87,6938.46
-16446.51,-38633.85,61.019999999999996,-2926.395,-2706.21,-32672.34,-4484.745,6940.304999999999
-16438.95,-38625.84,65.38499999999999,-2924.19,-2704.005,-32669.82,-4487.94,6942.78
-16432.739999999998,-38626.38,58.184999999999995,-2935.98,-2720.88,-32691.87,-4478.67,6950.61
-16444.35,-38640.78,51.3,-2935.395,-2714.4449999999997,-32681.699999999997,-4478.535,6945.389999999999
-16449.93,-38649.015,49.32,-2931.705,-2706.12,-32667.66,-4475.565,6943.679999999999
-16446.69,-38646.585,51.614999999999995,-2932.2,-2713.5,-32683.545,-4473.045,6947.009999999999
-16445.52,-38644.74,52.695,-2932.6949999999997,-2718.27,-32695.02,-4476.285,6946.65
-16456.32,-38660.04,36.405,-2945.205,-2720.115,-32679.09,-4478.445,6940.44
-16449.614999999998,-38647.53,49.725,-2935.935,-2712.24,-32672.655,-4486.995,6940.9349999999995
-16437.239999999998,-38643.615,42.975,-2949.93,-2728.62,-32692.59,-4476.915,6952.005
-16431.39,-38630.205,54.989999999999995,-2943.0,-2726.145,-32692.815,-4482.2699999999995,6950.205
-16432.2,-38629.395,59.76,-2942.2799999999997,-2732.22,-32706.495,-4480.11,6949.17
-16453.079999999998,-38662.83,39.195,-2956.095,-2746.08,-32721.93,-4466.07,6945.255
-16446.195,-38655.09,47.114999999999995,-2948.67,-2738.565,-32714.73,-4475.745,6946.245
-16432.155,-38628.63,79.38,-2909.565,-2685.1949999999997,-32648.535,-4491.54,6947.639999999999
-16439.489999999998,-38639.655,66.96,-2918.0699999999997,-2681.46,-32631.704999999998,-4488.795,6945.255
-16437.239999999998,-38638.799999999996,67.095,-2921.085,-2692.125,-32650.245,-4480.47,6949.349999999999
-16447.454999999998,-38656.71,52.379999999999995,-2933.055,-2702.79,-32661.495,-4486.275,6943.23
-16429.995,-38636.505,69.39,-2918.565,-2687.4,-32648.805,-4490.19,6954.075
-16422.795,-38622.42,82.845,-2908.44,-2681.505,-32646.6,-4491.2699999999995,6955.92
-16438.59,-38645.055,56.385,-2938.14,-2715.435,-32683.77,-4479.03,6949.08
-16447.14,-38658.42,42.345,-2951.325,-2726.595,-32694.03,-4477.86,6945.84
