ch_0,ch_1,ch_2,ch_3,ch_4,ch_5,ch_6,ch_7
14378.67,-1237.905,101.295,-2236.23,19205.73,-6130.98,3506.04,20699.1
14367.824999999999,-1244.115,102.06,-2237.265,19202.535,-6136.065,3501.6299999999997,20691.809999999998
14373.855,-1261.395,86.03999999999999,-2243.0699999999997,19204.829999999998,-6125.355,3520.08,20706.885
14363.73,-1293.03,71.28,-2239.245,19217.88,-6100.785,3540.015,20714.67
14358.015,-1293.93,80.91,-2224.89,19233.405,-6083.415,3545.8199999999997,20718.63
14360.535,-1288.7549999999999,79.875,-2230.92,19224.45,-6095.655,3535.245,20717.684999999998
14363.055,-1279.98,83.74499999999999,-2236.815,19215.18,-6106.724999999999,3528.6299999999997,20714.219999999998
14352.164999999999,-1287.855,73.575,-2251.17,19198.98,-6124.59,3523.8599999999997,20702.204999999998
14346.585,-1288.35,69.92999999999999,-2254.095,19195.11,-6129.045,3528.495,20697.03
14345.505,-1288.305,68.13,-2258.505,19188.945,-6138.0,3519.72,20695.454999999998
14356.484999999999,-1273.905,78.16499999999999,-2252.295,19192.995,-6136.155,3521.745,20705.219999999998
14347.26,-1284.3899999999999,72.0,-2255.985,19191.059999999998,-6135.795,3521.835,20700.809999999998
14352.119999999999,-1285.3799999999999,73.71,-2249.955,19199.52,-6124.139999999999,3528.765,20709.585
14353.875,-1280.2949999999998,83.88,-2240.685,19207.844999999998,-6118.65,3529.89,20714.219999999998
14357.654999999999,-1272.0149999999999,87.705,-2241.9449999999997,19204.2,-6125.625,3528.4049999999997,20715.57
14355.404999999999,-1272.465,80.955,-2252.88,19191.78,-6140.565,3525.39,20711.07
14351.445,-1277.055,74.205,-2258.055,19186.605,-6146.37,3530.295,20707.155
14345.73,-1283.1299999999999,70.335,-2259.765,19183.995,-6151.1849999999995,3522.15,20703.825
14329.755,-1300.23,59.849999999999994,-2266.29,19179.27,-6154.335,3515.805,20695.274999999998
14325.885,-1300.4099999999999,63.629999999999995,-2263.5899999999997,19181.7,-6150.105,3517.3799999999997,20694.78
14332.005,-1292.94,68.75999999999999,-2262.105,19181.79,-6148.53,3519.81,20699.055
14340.96,-1281.195,76.455,-2260.485,19182.059999999998,-6147.36,3525.5699999999997,20706.524999999998
14332.59,-1292.5349999999999,66.105,-2269.845,19172.61,-6159.554999999999,3521.745,20700.989999999998
14332.455,-1294.155,64.125,-2269.305,19172.969999999998,-6159.87,3524.9849999999997,20703.87
14345.73,-1281.555,70.785,-2265.0299999999997,19177.469999999998,-6155.955,3535.02,20716.38
14348.609999999999,-1273.455,75.735,-2264.67,19176.03,-6160.139999999999,3531.4649999999997,20713.995
14347.71,-1262.2949999999998,87.92999999999999,-2258.2799999999997,19177.829999999998,-6162.525,3521.6099999999997,20707.875
14338.394999999999,-1263.33,87.615,-2263.9049999999997,19169.235,-6174.045,3510.27,20697.975
14334.255,-1271.79,78.795,-2267.505,19167.614999999998,-6174.8099999999995,3509.865,20697.614999999998
14322.779999999999,-1306.44,54.675,-2276.0099999999998,19168.38,-6162.48,3523.77,20701.665
14314.59,-1316.79,51.21,-2276.595,19168.965,-6159.195,3527.145,20701.305
14306.805,-1325.79,49.769999999999996,-2273.805,19172.969999999998,-6153.84,3530.52,20700.54
14309.82,-1330.695,42.66,-2277.4049999999997,19170.945,-6154.0199999999995,3537.6299999999997,20706.12
14326.064999999999,-1318.77,44.82,-2280.735,19167.03,-6157.889999999999,3545.73,20718.945
14331.51,-1295.82,59.309999999999995,-2280.87,19159.785,-6170.94,3533.535,20714.76
14323.005,-1291.1399999999999,60.254999999999995,-2286.585,19150.02,-6185.925,3517.3799999999997,20703.149999999998
14322.6,-1289.655,67.23,-2276.595,19158.66,-6178.995,3522.24,20709.27
14315.76,-1315.53,54.044999999999995,-2278.62,19159.92,-6175.304999999999,3532.095,20714.67
14308.109999999999,-1328.625,48.195,-2280.4649999999997,19161.09,-6170.49,3536.145,20713.545
14312.025,-1314.405,52.605,-2282.31,19157.76,-6173.6849999999995,3530.295,20710.665
14305.859999999999,-1318.095,44.46,-2292.0299999999997,19149.57,-6179.355,3523.41,20701.71
14307.255,-1315.8899999999999,39.555,-2300.4,19139.67,-6191.505,3518.5049999999997,20700.585
14316.57,-1314.945,37.394999999999996,-2299.455,19141.695,-6192.2699999999995,3522.42,20709.945
14307.435,-1318.68,38.519999999999996,-2299.455,19139.895,-6196.455,3516.705,20703.51
14313.06,-1304.1,56.61,-2283.345,19156.23,-6176.205,3529.665,20714.309999999998
14302.935,-1319.715,51.3,-2282.7149999999997,19160.864999999998,-6165.719999999999,3538.2599999999998,20714.805
14294.519999999999,-1333.8,43.92,-2286.045,19157.985,-6166.485,3542.895,20713.68
14293.89,-1328.715,41.67,-2293.1549999999997,19146.375,-6182.415,3531.1949999999997,20707.155
14298.435,-1321.02,49.5,-2285.19,19154.655,-6175.26,3534.21,20712.329999999998
14291.144999999999,-1328.085,42.39,-2293.4249999999997,19146.105,-6185.7,3528.0,20705.985
14298.975,-1319.58,47.79,-2290.5899999999997,19146.465,-6187.455,3530.745,20711.925
14297.355,-1319.04,44.235,-2300.355,19132.29,-6204.24,3524.4449999999997,20707.245
14296.68,-1319.22,41.894999999999996,-2306.25,19125.18,-6214.1849999999995,3520.5299999999997,20705.94
14299.605,-1317.78,43.739999999999995,-2304.18,19127.114999999998,-6212.205,3524.04,20710.98
14309.055,-1303.875,59.849999999999994,-2287.62,19144.71,-6193.26,3535.2,20721.96
14303.205,-1316.79,49.545,-2292.12,19144.035,-6192.315,3536.595,20721.555
14302.394999999999,-1323.135,38.475,-2303.37,19133.055,-6203.835,3535.335,20720.385
14295.105,-1322.19,32.625,-2316.375,19116.405,-6224.445,3523.6349999999998,20707.559999999998
14301.945,-1303.29,43.739999999999995,-2312.955,19114.695,-6231.465,3516.0299999999997,20707.29
14293.484999999999,-1310.85,55.71,-2296.08,19133.235,-6205.95,3529.2599999999998,20715.3
14278.23,-1336.995,47.519999999999996,-2292.0299999999997,19144.934999999998,-6185.835,3544.02,20717.28
14276.16,-1353.465,33.03,-2298.015,19143.09,-6185.205,3549.7799999999997,20719.844999999998
14275.484999999999,-1348.2,29.52,-2306.295,19132.559999999998,-6198.84,3542.355,20715.21
14273.189999999999,-1349.595,26.055,-2313.27,19124.505,-6206.264999999999,3540.24,20713.005
14287.635,-1334.97,37.53,-2308.815,19127.52,-6202.17,3550.77,20725.245
14281.92,-1334.925,35.865,-2312.865,19122.03,-6210.0,3542.22,20717.01
14282.369999999999,-1329.03,41.67,-2308.9049999999997,19124.91,-6209.955,3540.06,20717.145
14284.035,-1328.5349999999999,43.155,-2306.205,19127.07,-6208.29,3542.7149999999997,20721.645
14276.205,-1341.0449999999998,26.91,-2322.54,19110.059999999998,-6224.67,3539.16,20716.245
14274.99,-1336.59,29.07,-2325.1949999999997,19104.885,-6230.925,3533.22,20713.545
14274.72,-1336.185,29.97,-2323.08,19109.34,-6227.235,3535.1549999999997,20714.535
14273.595,-1338.6599999999999,26.145,-2325.375,19108.395,-6228.54,3538.305,20715.84
14277.42,-1337.805,22.634999999999998,-2329.605,19103.579999999998,-6234.615,3538.2599999999998,20718.09
14296.635,-1313.28,44.82,-2312.775,19115.594999999998,-6228.54,3538.575,20733.885
14305.23,-1303.065,56.294999999999995,-2303.145,19120.905,-6228.179999999999,3538.395,20744.415
14288.085,-1321.02,44.684999999999995,-2313.6749999999997,19108.98,-6240.42,3531.87,20733.704999999998
14273.91,-1339.875,26.82,-2329.6949999999997,19092.645,-6256.17,3541.6349999999998,20725.11
14251.41,-1352.79,16.785,-2339.595,19088.01,-6250.23,3548.16,20705.67
14265.945,-1333.215,34.47,-2322.045,19111.005,-6221.115,3549.06,20713.68
14273.64,-1340.595,28.619999999999997,-2323.62,19111.725,-6217.514999999999,3556.08,20725.335
14257.035,-1363.59,17.595,-2327.22,19109.835,-6216.165,3557.97,20722.23
14243.67,-1374.75,7.965,-2336.1749999999997,19099.62,-6229.349999999999,3548.745,20711.61
14256.045,-1357.605,19.395,-2330.055,19103.085,-6229.215,3551.355,20719.71
14261.67,-1349.37,24.3,-2327.13,19104.39,-6230.295,3553.1549999999997,20723.985
14267.34,-1341.855,30.645,-2323.98,19106.864999999998,-6228.719999999999,3559.0499999999997,20729.835
14259.51,-1351.305,23.895,-2330.415,19099.305,-6236.37,3556.7549999999997,20725.785
14257.529999999999,-1353.4199999999998,20.025,-2335.995,19092.735,-6243.974999999999,3553.92,20725.02
14256.855,-1357.245,14.715,-2338.74,19090.934999999998,-6246.09,3553.56,20725.065
14258.744999999999,-1354.77,19.529999999999998,-2333.97,19094.535,-6240.6449999999995,3554.955,20727.765
14248.17,-1357.965,19.755,-2336.355,19091.655,-6244.245,3547.89,20718.405
14248.26,-1349.235,24.884999999999998,-2336.7149999999997,19089.045,-6250.724999999999,3543.93,20717.145
14256.63,-1336.0049999999999,27.45,-2340.9,19080.135,-6265.665,3538.395,20717.91
14257.305,-1341.0,21.96,-2344.455,19077.975,-6269.355,3540.555,20720.204999999998
14260.41,-1362.2849999999999,4.545,-2350.755,19078.695,-6259.365,3559.68,20734.739999999998
14255.64,-1364.22,12.645,-2341.62,19087.245,-6248.16,3567.285,20736.765
14248.755,-1356.615,22.86,-2337.12,19088.594999999998,-6250.815,3559.41,20729.43
14243.805,-1353.735,22.23,-2342.43,19080.495,-6260.58,3551.895,20722.86
14255.01,-1342.08,30.015,-2334.555,19088.055,-6254.55,3557.3849999999998,20731.68
14249.564999999999,-1359.81,19.755,-2336.04,19090.485,-6251.04,3562.92,20735.325
14239.935,-1376.235,10.305,-2341.17,19088.37,-6249.69,3566.8799999999997,20734.29
14234.535,-1375.605,9.045,-2349.27,19077.57,-6258.33,3562.3799999999997,20727.855
14237.595,-1371.6,12.51,-2344.68,19081.305,-6257.115,3565.035,20731.635
14230.125,-1380.33,3.195,-2354.4449999999997,19070.37,-6268.86,3559.14,20724.524999999998
14231.07,-1379.2949999999998,3.375,-2355.345,19069.29,-6270.795,3559.455,20726.19
14243.76,-1359.495,21.735,-2339.955,19081.035,-6261.525,3565.7549999999997,20736.495
14236.109999999999,-1357.335,25.38,-2338.6949999999997,19081.035,-6260.76,3560.31,20728.44
14232.644999999999,-1368.405,7.92,-2355.8849999999998,19065.555,-6274.17,3558.5099999999998,20725.2
14243.445,-1363.23,8.055,-2355.5699999999997,19066.59,-6273.855,3564.54,20735.505
14243.805,-1358.0549999999998,12.87,-2356.47,19063.35,-6281.91,3557.0699999999997,20732.805
14235.029999999999,-1364.6699999999998,4.095,-2367.9449999999997,19051.335,-6294.15,3547.98,20722.32
14234.984999999999,-1355.76,8.504999999999999,-2367.0899999999997,19049.76,-6297.03,3546.3599999999997,20721.645
14245.92,-1338.48,20.43,-2357.505,19057.005,-6293.25,3552.705,20731.32
14233.455,-1368.45,1.53,-2367.54,19051.695,-6292.62,3561.525,20732.085
14234.76,-1373.355,2.205,-2365.38,19054.71,-6286.41,3570.615,20738.43
14235.57,-1365.435,14.264999999999999,-2355.8399999999997,19063.035,-6281.6849999999995,3571.605,20738.61
14217.93,-1399.6799999999998,-6.255,-2363.985,19062.765,-6273.63,3580.1099999999997,20736.495
14212.71,-1391.76,2.6999999999999997,-2358.27,19065.195,-6272.415,3575.0699999999997,20731.815
14208.48,-1387.26,4.2299999999999995,-2362.365,19057.725,-6285.87,3560.895,20723.535
14213.609999999999,-1380.915,1.26,-2369.25,19049.309999999998,-6298.155,3555.585,20722.68
14222.115,-1380.24,-8.955,-2380.095,19037.61,-6309.719999999999,3557.6549999999997,20728.305
14223.015,-1390.95,-16.02,-2381.85,19038.645,-6303.15,3570.345,20736.54
14196.6,-1415.52,-25.154999999999998,-2384.1,19038.87,-6299.19,3566.115,20721.42
14203.89,-1397.655,-9.945,-2374.875,19045.485,-6296.4,3565.575,20725.11
14214.015,-1380.87,1.98,-2368.62,19048.905,-6297.12,3565.305,20729.52
14217.345,-1377.855,5.3549999999999995,-2363.535,19054.844999999998,-6293.115,3571.02,20733.48
14220.765,-1371.645,3.915,-2370.825,19043.505,-6306.3,3565.935,20731.005
14208.885,-1392.9299999999998,-12.465,-2380.095,19037.61,-6309.45,3567.645,20727.719999999998
14194.529999999999,-1418.445,-32.04,-2393.19,19027.934999999998,-6316.695,3564.495,20722.14
14198.805,-1405.53,-12.42,-2379.015,19040.445,-6301.125,3565.2599999999998,20729.204999999998
14199.074999999999,-1397.52,-4.95,-2377.755,19038.735,-6303.87,3566.16,20729.52
14204.295,-1393.83,-15.344999999999999,-2391.48,19024.335,-6322.05,3556.305,20726.28
14217.435,-1386.495,-12.33,-2386.44,19031.085,-6313.679999999999,3557.7,20739.78
14209.515,-1397.0249999999999,-15.795,-2386.71,19031.67,-6310.215,3559.3199999999997,20738.88
14192.64,-1408.32,-14.985,-2385.9,19032.075,-6308.505,3567.96,20731.184999999998
14179.769999999999,-1415.205,-23.22,-2397.645,19020.195,-6320.205,3583.395,20718.63
14167.08,-1425.4199999999998,-33.57,-2409.0299999999997,19006.739999999998,-6335.19,3568.995,20703.87
14177.115,-1415.8799999999999,-21.24,-2396.0699999999997,19017.585,-6328.304999999999,3563.0099999999998,20714.985
14175.359999999999,-1415.4299999999998,-23.49,-2398.95,19013.76,-6334.065,3561.21,20714.715
14167.98,-1422.315,-32.129999999999995,-2409.435,19003.094999999998,-6346.125,3557.835,20709.719999999998
14172.21,-1420.965,-30.599999999999998,-2407.995,19004.76,-6343.0199999999995,3557.025,20713.86
14186.295,-1409.6699999999998,-19.98,-2394.18,19023.075,-6321.014999999999,3566.745,20723.625
14185.89,-1410.165,-25.695,-2404.2149999999997,19010.7,-6333.21,3563.145,20721.96
14169.33,-1427.8049999999998,-42.03,-2420.865,18992.024999999998,-6352.335,3552.795,20710.844999999998
14175.539999999999,-1415.61,-29.924999999999997,-2411.775,18998.46,-6350.67,3556.395,20717.055
14181.66,-1406.115,-23.085,-2406.15,19003.995,-6346.62,3562.56,20722.815
14166.045,-1428.12,-42.21,-2417.13,18995.76,-6354.855,3556.35,20713.454999999998
14162.085,-1435.6799999999998,-44.01,-2416.455,18996.255,-6355.3949999999995,3554.73,20711.88
14159.025,-1436.355,-41.94,-2417.04,18993.195,-6355.98,3554.685,20711.16
14167.035,-1421.6399999999999,-33.345,-2415.15,18992.969999999998,-6354.0,3558.645,20716.605
14165.865,-1421.325,-35.64,-2419.29,18990.809999999998,-6352.5599999999995,3558.24,20715.48
