ch_0,ch_1,ch_2,ch_3,ch_4,ch_5,ch_6,ch_7
6047.054999999999,-19235.34,7564.094999999999,-15366.06,-367.155,-923.76,-14135.85,11399.895
6066.09,-19223.64,7557.48,-15378.75,-378.99,-933.165,-14130.09,11418.39
6061.545,-19222.02,7561.485,-15368.805,-365.445,-919.17,-14126.039999999999,11413.529999999999
6058.17,-19216.215,7575.4349999999995,-15355.08,-351.945,-908.055,-14126.58,11406.96
6066.2699999999995,-19210.005,7577.73,-15358.095,-355.54499999999996,-914.9399999999999,-14127.84,11406.33
6026.76,-19224.45,7581.87,-15347.744999999999,-341.505,-899.9549999999999,-14124.105,11389.68
6019.245,-19236.825,7574.804999999999,-15347.295,-337.14,-891.0899999999999,-14116.68,11394.855
6036.255,-19224.045,7576.335,-15349.994999999999,-340.60499999999996,-892.53,-14117.625,11401.02
6049.304999999999,-19219.68,7574.8949999999995,-15356.564999999999,-349.425,-905.7149999999999,-14120.91,11404.035
6052.545,-19215.315,7576.11,-15358.455,-353.115,-915.255,-14124.105,11403.9
6060.195,-19207.305,7581.69,-15356.474999999999,-355.77,-923.895,-14125.725,11406.285
6061.995,-19206.315,7586.099999999999,-15347.744999999999,-342.18,-906.255,-14121.404999999999,11411.1
6045.525,-19210.14,7588.98,-15341.13,-328.905,-886.14,-14121.494999999999,11402.685
6043.5,-19207.395,7588.17,-15344.324999999999,-330.57,-883.395,-14124.105,11398.814999999999
6040.485,-19214.055,7575.344999999999,-15363.0,-353.15999999999997,-908.415,-14127.615,11394.855
6044.8949999999995,-19203.795,7583.3099999999995,-15358.994999999999,-357.34499999999997,-922.185,-14138.82,11391.48
6049.17,-19192.32,7589.16,-15358.994999999999,-361.89,-932.67,-14142.24,11387.97
6059.7,-19186.92,7591.23,-15354.0,-353.25,-918.9449999999999,-14133.015,11397.734999999999
6072.344999999999,-19181.565,7591.86,-15349.545,-343.62,-903.915,-14120.865,11417.13
6063.795,-19187.954999999998,7595.28,-15339.33,-321.84,-872.8199999999999,-14119.019999999999,11409.93
6067.44,-19196.415,7593.165,-15333.48,-306.09,-849.375,-14116.949999999999,11409.795
6070.139999999999,-19191.015,7594.245,-15335.01,-311.58,-855.54,-14118.66,11408.58
6051.78,-19188.495,7598.5199999999995,-15333.39,-311.13,-857.79,-14117.355,11401.154999999999
6053.085,-19188.855,7596.945,-15337.574999999999,-315.85499999999996,-864.27,-14121.99,11398.41
6048.315,-19197.27,7597.98,-15333.074999999999,-311.895,-862.245,-14123.34,11393.955
6060.51,-19204.065,7594.92,-15334.064999999999,-314.55,-866.8349999999999,-14121.18,11406.555
6065.955,-19196.64,7591.7699999999995,-15339.015,-319.545,-873.18,-14121.63,11411.055
6062.625,-19196.415,7593.03,-15340.23,-321.435,-878.985,-14125.769999999999,11411.369999999999
6053.804999999999,-19190.88,7599.96,-15336.945,-320.175,-880.3349999999999,-14128.65,11403.72
6062.76,-19176.524999999998,7605.63,-15336.359999999999,-324.18,-887.04,-14130.09,11400.21
6061.41,-19175.265,7603.0199999999995,-15343.695,-333.53999999999996,-898.8299999999999,-14127.39,11401.56
6066.09,-19183.77,7598.205,-15348.465,-341.055,-912.645,-14122.305,11417.939999999999
6076.17,-19183.094999999998,7590.78,-15356.88,-349.695,-924.48,-14120.189999999999,11429.685
6074.955,-19182.195,7591.094999999999,-15353.414999999999,-337.95,-900.135,-14117.76,11419.064999999999
6021.585,-19206.315,7592.985,-15333.3,-299.96999999999997,-841.545,-14112.539999999999,11383.244999999999
6015.69,-19196.055,7603.83,-15323.355,-289.89,-832.77,-14114.97,11376.404999999999
6052.094999999999,-19181.61,7599.96,-15334.515,-306.09,-852.48,-14117.175,11391.345
6062.76,-19183.454999999998,7591.679999999999,-15343.965,-314.28,-857.25,-14122.755,11398.635
6064.38,-19169.37,7598.384999999999,-15343.335,-318.645,-868.545,-14127.345,11408.85
6068.835,-19163.835,7604.054999999999,-15341.085,-319.05,-873.135,-14132.07,11412.675
6067.755,-19165.815,7607.655,-15333.48,-310.455,-867.24,-14127.345,11414.835
6032.61,-19166.67,7626.105,-15302.205,-274.68,-828.0899999999999,-14118.93,11391.48
6021.63,-19177.965,7627.005,-15296.355,-264.195,-816.2099999999999,-14107.545,11395.439999999999
6013.71,-19190.655,7626.509999999999,-15295.904999999999,-262.08,-812.9699999999999,-14110.289999999999,11395.17
6041.655,-19187.19,7621.605,-15303.734999999999,-271.305,-823.23,-14114.25,11405.609999999999
6064.335,-19171.215,7613.1449999999995,-15322.635,-290.295,-841.14,-14114.16,11411.64
6067.17,-19175.13,7602.299999999999,-15336.765,-303.16499999999996,-855.135,-14110.019999999999,11415.869999999999
6049.17,-19185.57,7609.724999999999,-15321.42,-288.045,-843.75,-14111.279999999999,11409.029999999999
6046.245,-19187.82,7613.1449999999995,-15313.095,-279.85499999999996,-833.5799999999999,-14112.99,11407.725
6052.7699999999995,-19183.95,7610.085,-15317.414999999999,-280.34999999999997,-828.045,-14110.515,11411.189999999999
6048.585,-19186.739999999998,7604.955,-15324.029999999999,-287.325,-830.745,-14111.189999999999,11408.13
6048.315,-19183.905,7620.84,-15302.34,-263.34,-806.31,-14113.484999999999,11410.38
6044.445,-19192.95,7624.53,-15295.23,-255.14999999999998,-801.225,-14115.105,11408.13
6053.085,-19179.045,7621.5599999999995,-15305.4,-265.14,-813.105,-14116.005,11409.435
6061.724999999999,-19161.54,7614.179999999999,-15321.555,-282.735,-834.39,-14115.779999999999,11408.31
6052.815,-19158.795,7619.13,-15320.295,-290.745,-857.475,-14123.88,11399.175
6046.875,-19167.704999999998,7620.884999999999,-15323.13,-301.95,-880.875,-14119.965,11410.74
6046.065,-19195.02,7595.91,-15345.9,-327.555,-908.73,-14121.855,11411.55
6063.929999999999,-19165.454999999998,7614.134999999999,-15333.164999999999,-318.91499999999996,-899.4599999999999,-14121.269999999999,11411.1
6055.514999999999,-19161.405,7619.625,-15317.64,-285.255,-837.5849999999999,-14115.555,11395.664999999999
6049.304999999999,-19165.454999999998,7618.86,-15308.775,-257.94,-782.64,-14106.15,11404.71
6043.995,-19167.524999999998,7626.509999999999,-15299.505,-246.42,-773.415,-14111.82,11404.439999999999
6062.94,-19158.075,7634.205,-15298.65,-257.03999999999996,-804.4649999999999,-14115.33,11419.785
6075.495,-19154.7,7623.719999999999,-15316.695,-281.34,-839.79,-14123.205,11419.425
6056.054999999999,-19162.665,7617.87,-15319.035,-280.215,-839.925,-14127.345,11404.71
6064.469999999999,-19151.37,7626.735,-15310.349999999999,-270.135,-829.7099999999999,-14129.055,11405.97
6081.885,-19128.645,7638.21,-15303.42,-262.935,-818.055,-14128.289999999999,11406.51
6077.385,-19132.425,7633.215,-15308.234999999999,-258.16499999999996,-792.63,-14114.654999999999,11408.085
6060.6449999999995,-19150.38,7624.98,-15307.92,-250.065,-774.405,-14111.64,11404.484999999999
6027.57,-19167.614999999998,7623.134999999999,-15302.385,-247.995,-782.28,-14115.42,11390.039999999999
5996.16,-19196.055,7626.69,-15288.074999999999,-234.495,-773.775,-14109.705,11386.845
6023.115,-19193.445,7630.424999999999,-15282.63,-227.475,-766.665,-14106.285,11401.244999999999
6047.91,-19175.805,7632.45,-15288.435,-236.51999999999998,-779.04,-14106.105,11413.619999999999
6041.429999999999,-19172.114999999998,7631.054999999999,-15290.955,-240.29999999999998,-784.26,-14107.14,11407.994999999999
6033.78,-19168.829999999998,7634.07,-15287.76,-232.29,-773.1,-14105.025,11403.72
6043.86,-19155.87,7634.16,-15294.33,-241.875,-785.3399999999999,-14113.08,11400.39
6045.255,-19149.66,7645.275,-15281.414999999999,-228.42,-772.155,-14112.404999999999,11401.515
6043.275,-19156.14,7646.085,-15277.455,-221.94,-761.9399999999999,-14110.335,11403.404999999999
6037.695,-19171.395,7632.8099999999995,-15289.064999999999,-228.78,-764.28,-14110.244999999999,11399.535
6039.585,-19167.12,7636.634999999999,-15285.465,-228.42,-770.5799999999999,-14111.01,11400.074999999999
6035.49,-19159.605,7640.37,-15287.445,-236.34,-787.095,-14113.664999999999,11403.585
6040.304999999999,-19162.575,7628.4,-15304.59,-252.405,-800.37,-14116.769999999999,11407.05
6048.315,-19149.704999999998,7636.049999999999,-15300.81,-249.57,-795.555,-14115.015,11410.83
6050.385,-19149.704999999998,7635.96,-15299.324999999999,-247.005,-789.93,-14114.654999999999,11411.414999999999
6055.605,-19154.925,7632.764999999999,-15299.775,-244.79999999999998,-786.375,-14114.34,11416.725
6071.264999999999,-19136.52,7638.4349999999995,-15297.57,-240.75,-781.245,-14122.574999999999,11411.55
6090.57,-19119.015,7637.759999999999,-15303.689999999999,-244.17,-779.9399999999999,-14130.18,11408.984999999999
6115.86,-19102.184999999998,7648.424999999999,-15293.744999999999,-237.015,-772.56,-14133.42,11412.314999999999
6092.55,-19110.555,7647.255,-15294.105,-235.70999999999998,-771.165,-14132.744999999999,11395.395
6028.92,-19123.245,7650.134999999999,-15290.279999999999,-231.92999999999998,-769.5899999999999,-14126.355,11376.675
5968.035,-19168.469999999998,7649.46,-15278.58,-216.81,-755.415,-14110.289999999999,11384.955
5979.285,-19205.415,7637.8949999999995,-15278.49,-213.975,-755.1899999999999,-14103.855,11408.31
6017.085,-19206.63,7628.849999999999,-15284.654999999999,-221.80499999999998,-765.36,-14110.875,11417.49
6031.755,-19190.79,7632.945,-15284.025,-220.76999999999998,-762.165,-14111.91,11416.365
6026.76,-19196.82,7625.7,-15290.144999999999,-221.94,-756.72,-14108.355,11410.47
6025.275,-19178.594999999998,7632.945,-15286.5,-217.98,-753.165,-14112.945,11403.225
6041.565,-19152.09,7645.815,-15279.39,-214.47,-753.12,-14115.285,11410.38
6047.73,-19159.155,7637.174999999999,-15295.05,-232.10999999999999,-773.595,-14120.144999999999,11412.0
6060.105,-19152.945,7640.775,-15292.439999999999,-230.98499999999999,-773.73,-14124.33,11413.845
6060.554999999999,-19150.425,7641.179999999999,-15291.765,-231.165,-777.105,-14128.83,11403.359999999999
6052.995,-19159.245,7629.48,-15306.029999999999,-246.06,-794.5649999999999,-14131.484999999999,11401.92
6037.335,-19156.094999999998,7641.134999999999,-15289.92,-226.845,-770.49,-14127.435,11406.06
6015.78,-19162.62,7642.71,-15284.115,-217.79999999999998,-757.53,-14124.689999999999,11398.23
6017.175,-19161.495,7646.58,-15278.22,-207.045,-742.4549999999999,-14123.295,11393.595
6032.61,-19152.54,7648.38,-15277.904999999999,-206.23499999999999,-737.64,-14118.435,11400.66
6041.16,-19162.17,7639.38,-15287.31,-216.45,-747.765,-14121.765,11401.38
6053.219999999999,-19144.98,7653.42,-15274.484999999999,-204.345,-736.6949999999999,-14121.045,11404.125
6037.65,-19143.045,7654.41,-15274.26,-205.155,-739.305,-14118.435,11401.109999999999
6009.66,-19162.17,7647.66,-15277.994999999999,-208.39499999999998,-744.615,-14116.68,11399.22
6027.165,-19156.005,7650.179999999999,-15277.635,-211.815,-754.11,-14121.63,11409.66
6050.385,-19133.505,7654.32,-15283.17,-223.065,-768.9599999999999,-14126.67,11415.96
6055.695,-19121.985,7656.344999999999,-15284.564999999999,-220.545,-761.7149999999999,-14126.715,11410.785
6049.035,-19112.94,7662.825,-15275.474999999999,-204.92999999999998,-737.9549999999999,-14122.845,11399.895
6058.62,-19112.85,7655.04,-15282.09,-206.05499999999998,-734.4449999999999,-14123.34,11399.445
6071.49,-19108.395,7656.884999999999,-15279.255,-203.67,-735.3,-14127.66,11406.15
6066.945,-19115.325,7656.12,-15281.055,-205.515,-737.64,-14127.84,11402.01
6059.835,-19119.465,7660.9349999999995,-15273.404999999999,-197.595,-728.235,-14124.644999999999,11396.25
6016.32,-19129.32,7675.335,-15253.064999999999,-176.535,-707.355,-14108.355,11399.67
5989.275,-19161.809999999998,7661.429999999999,-15264.539999999999,-187.965,-721.98,-14100.48,11411.595
6023.61,-19165.815,7652.025,-15268.275,-195.525,-735.345,-14111.595,11413.439999999999
6026.085,-19152.54,7655.715,-15267.555,-196.515,-739.89,-14122.394999999999,11401.38
6033.51,-19144.98,7664.985,-15259.769999999999,-188.64,-733.14,-14120.64,11410.154999999999
6044.264999999999,-19136.024999999998,7659.134999999999,-15272.685,-201.915,-744.435,-14116.14,11416.14
6036.3,-19136.024999999998,7652.5199999999995,-15282.63,-210.51,-750.78,-14119.289999999999,11407.77
6032.205,-19149.93,7657.38,-15268.59,-189.98999999999998,-727.38,-14114.97,11410.695
6029.415,-19162.755,7651.844999999999,-15270.164999999999,-189.855,-722.2049999999999,-14116.725,11406.15
6017.3099999999995,-19164.465,7643.07,-15284.564999999999,-205.515,-731.6999999999999,-14118.029999999999,11396.07
6023.835,-19144.665,7658.6849999999995,-15274.439999999999,-199.44,-726.48,-14117.039999999999,11402.01
6033.96,-19136.61,7658.6849999999995,-15276.689999999999,-201.42,-730.665,-14117.355,11407.77
6050.07,-19129.094999999998,7651.755,-15288.39,-215.415,-752.22,-14126.085,11410.47
6077.79,-19108.844999999998,7663.23,-15282.269999999999,-217.755,-764.685,-14135.58,11420.73
6073.605,-19115.55,7663.95,-15281.279999999999,-216.54,-766.0799999999999,-14135.265,11421.18
6040.755,-19132.155,7662.915,-15268.005,-188.685,-726.03,-14121.945,11409.57
6015.195,-19132.965,7674.884999999999,-15245.01,-151.42499999999998,-678.915,-14111.189999999999,11392.83
6021.63,-19127.07,7673.13,-15252.57,-159.75,-684.675,-14111.64,11399.175
6023.61,-19130.489999999998,7672.905,-15254.955,-162.315,-685.305,-14111.144999999999,11404.845
6013.304999999999,-19146.42,7666.785,-15255.18,-164.835,-691.8299999999999,-14111.73,11399.22
6009.21,-19149.614999999998,7669.035,-15252.795,-167.445,-700.02,-14117.4,11396.205
6017.085,-19150.11,7666.695,-15256.125,-166.59,-693.405,-14114.295,11399.49
6025.365,-19142.145,7668.495,-15256.215,-163.17,-686.925,-14117.31,11400.48
6041.61,-19124.594999999998,7675.83,-15255.224999999999,-166.635,-695.745,-14116.275,11412.359999999999
6049.62,-19115.505,7677.09,-15256.619999999999,-166.005,-693.045,-14118.57,11410.02
6064.605,-19103.94,7677.179999999999,-15259.904999999999,-167.57999999999998,-689.13,-14118.75,11414.34
6058.17,-19099.44,7679.924999999999,-15257.744999999999,-166.5,-688.86,-14118.57,11415.195
6048.2699999999995,-19107.54,7674.21,-15263.369999999999,-173.07,-700.38,-14121.09,11408.76
6029.91,-19122.795,7670.924999999999,-15264.9,-177.39,-707.4449999999999,-14121.945,11405.609999999999
6033.0599999999995,-19141.335,7666.695,-15262.47,-173.43,-702.045,-14117.22,11416.005
6036.21,-19135.215,7670.655,-15259.769999999999,-170.775,-701.9549999999999,-14115.869999999999,11416.994999999999
6027.03,-19119.195,7683.66,-15251.31,-165.78,-699.48,-14118.39,11401.47
6023.115,-19120.995,7684.245,-15248.295,-160.01999999999998,-690.39,-14115.24,11394.855
