ch_0,ch_1,ch_2,ch_3,ch_4,ch_5,ch_6,ch_7
1787.715,-39076.424999999996,-14385.285,-43617.465,-18954.45,-39451.905,-5187.96,3378.7349999999997
1777.2749999999999,-39087.18,-14395.32,-43623.765,-18957.375,-39455.189999999995,-5189.355,3372.435
1797.21,-39060.945,-14376.779999999999,-43614.99,-18946.17,-39443.085,-5175.99,3393.495
1795.6799999999998,-39069.225,-14391.18,-43633.755,-18954.945,-39450.6,-5202.945,3398.31
1803.6899999999998,-39073.77,-14398.199999999999,-43628.4,-18943.29,-39443.354999999996,-5237.775,3399.12
1798.2,-39099.104999999996,-14405.039999999999,-43617.195,-18930.96,-39434.67,-5212.845,3397.275
1782.585,-39122.82,-14425.875,-43646.265,-18961.155,-39455.369999999995,-5167.44,3394.395
1743.975,-39125.79,-14436.539999999999,-43663.77,-18976.364999999998,-39454.424999999996,-5144.94,3362.4449999999997
1746.945,-39083.445,-14412.015,-43635.42,-18945.495,-39425.985,-5177.97,3353.1299999999997
1774.98,-39072.6,-14391.765,-43624.439999999995,-18939.6,-39434.939999999995,-5191.92,3377.9249999999997
1781.595,-39108.51,-14402.654999999999,-43622.64,-18935.145,-39429.494999999995,-5171.22,3401.91
1767.6899999999998,-39125.744999999995,-14417.01,-43624.89,-18939.51,-39435.39,-5177.429999999999,3397.455
1774.935,-39106.665,-14414.535,-43631.009999999995,-18951.344999999998,-39441.915,-5171.58,3399.0299999999997
1761.885,-39115.35,-14436.585,-43650.09,-18971.46,-39458.61,-5187.915,3377.79
1774.935,-39097.89,-14421.195,-43630.695,-18955.53,-39446.055,-5187.735,3389.04
1799.595,-39085.965,-14405.445,-43616.52,-18949.77,-39445.244999999995,-5214.0599999999995,3406.455
1836.855,-39067.56,-14385.375,-43610.715,-18953.505,-39456.945,-5247.09,3433.365
1843.7849999999999,-39059.369999999995,-14391.18,-43625.835,-18972.855,-39483.945,-5241.96,3434.085
1798.335,-39111.39,-14437.305,-43651.979999999996,-18974.52,-39474.09,-5193.0,3415.3199999999997
1746.495,-39142.845,-14449.005,-43658.909999999996,-18960.885,-39447.72,-5188.365,3375.495
1768.6799999999998,-39112.604999999996,-14407.605,-43621.515,-18934.965,-39429.314999999995,-5211.63,3383.2349999999997
1793.835,-39086.01,-14393.115,-43616.52,-18951.165,-39458.744999999995,-5226.345,3396.33
1802.655,-39079.395,-14390.73,-43602.435,-18926.55,-39434.31,-5207.58,3408.5699999999997
1772.685,-39101.174999999996,-14418.539999999999,-43629.299999999996,-18938.88,-39430.305,-5192.099999999999,3394.35
1768.86,-39089.34,-14419.035,-43638.299999999996,-18949.5,-39442.095,-5209.605,3385.935
1773.7649999999999,-39061.935,-14409.269999999999,-43632.134999999995,-18950.895,-39451.005,-5230.304999999999,3384.6299999999997
1776.96,-39046.77,-14405.939999999999,-43623.945,-18950.355,-39453.03,-5238.45,3386.16
1793.97,-39029.895,-14402.97,-43619.22,-18954.36,-39455.955,-5232.105,3404.295
1790.46,-39044.924999999996,-14424.615,-43632.72,-18965.655,-39451.814999999995,-5209.74,3411.1349999999998
1791.225,-39032.64,-14425.38,-43651.575,-18979.29,-39462.119999999995,-5224.32,3404.97
1799.37,-39042.314999999995,-14421.465,-43646.4,-18969.48,-39459.195,-5235.12,3414.87
1825.9199999999998,-39026.205,-14403.33,-43627.994999999995,-18960.12,-39467.205,-5245.245,3439.44
1843.74,-38995.11,-14380.695,-43615.215,-18958.364999999998,-39478.814999999995,-5281.695,3449.475
1845.855,-38988.045,-14374.17,-43612.695,-18948.329999999998,-39463.74,-5317.83,3446.685
1884.735,-38966.174999999996,-14348.519999999999,-43591.14,-18929.745,-39451.77,-5370.255,3478.455
1902.915,-38957.04,-14323.904999999999,-43563.015,-18900.719999999998,-39436.2,-5343.389999999999,3497.58
1865.4299999999998,-38996.64,-14372.324999999999,-43613.595,-18950.309999999998,-39477.375,-5232.69,3477.645
1788.345,-39073.229999999996,-14452.605,-43676.28,-18997.605,-39492.99,-5112.764999999999,3431.745
1724.9399999999998,-39127.545,-14487.48,-43678.259999999995,-18991.125,-39477.104999999996,-5141.115,3366.99
1769.6699999999998,-39071.79,-14431.5,-43616.88,-18943.559999999998,-39449.97,-5211.045,3381.93
1803.825,-39038.22,-14405.58,-43593.659999999996,-18924.12,-39435.84,-5217.84,3412.395
1826.37,-39018.735,-14391.99,-43592.625,-18922.364999999998,-39428.82,-5216.804999999999,3432.42
1844.955,-38997.27,-14377.814999999999,-43597.034999999996,-18931.14,-39436.604999999996,-5224.05,3449.43
1850.04,-38973.24,-14361.705,-43607.655,-18949.005,-39456.854999999996,-5235.525,3457.2149999999997
1843.7849999999999,-38962.439999999995,-14358.42,-43624.53,-18963.585,-39468.555,-5231.295,3455.595
1802.34,-38996.865,-14414.22,-43646.4,-18966.015,-39460.68,-5229.855,3427.02
1803.195,-39027.555,-14496.84,-43659.854999999996,-18961.739999999998,-39448.619999999995,-5226.615,3437.91
1826.9099999999999,-39059.145,-14507.234999999999,-43638.39,-18947.969999999998,-39442.005,-5222.925,3457.305
1825.2,-39093.57,-14414.625,-43593.479999999996,-18936.495,-39445.965,-5247.63,3442.95
1829.61,-39041.28,-14344.965,-43579.619999999995,-18944.954999999998,-39464.82,-5274.315,3423.375
1850.58,-38923.515,-14332.859999999999,-43581.42,-18936.585,-39450.42,-5260.7699999999995,3427.83
1831.77,-38910.015,-14353.244999999999,-43593.84,-18934.065,-39431.295,-5246.325,3432.1949999999997
1833.975,-38953.215,-14363.144999999999,-43591.455,-18921.555,-39408.93,-5225.58,3458.79
1842.48,-38973.735,-14364.18,-43599.96,-18927.855,-39413.564999999995,-5233.5,3456.99
1864.1699999999998,-38967.119999999995,-14368.904999999999,-43598.43,-18928.62,-39413.295,-5233.679999999999,3471.2999999999997
1885.095,-38977.515,-14365.215,-43591.68,-18931.005,-39420.765,-5237.82,3487.23
1911.195,-38962.845,-14336.595,-43583.265,-18926.415,-39425.715,-5239.125,3497.895
1920.915,-38929.365,-14340.914999999999,-43596.09,-18932.355,-39434.805,-5243.67,3502.17
1904.58,-38932.515,-14358.555,-43604.549999999996,-18938.79,-39439.17,-5251.005,3496.5
1900.7549999999999,-38932.83,-14336.955,-43582.005,-18917.1,-39415.68,-5236.514999999999,3505.77
1902.645,-38925.585,-14327.505,-43569.945,-18903.555,-39402.54,-5225.535,3508.47
1902.33,-38937.284999999996,-14336.144999999999,-43576.965,-18911.295,-39408.39,-5225.264999999999,3510.585
1898.6399999999999,-38950.74,-14340.869999999999,-43581.689999999995,-18915.344999999998,-39404.25,-5219.415,3513.645
1899.27,-38950.424999999996,-14344.019999999999,-43592.805,-18931.995,-39418.335,-5233.724999999999,3508.1099999999997
1906.605,-38939.76,-14340.465,-43593.479999999996,-18932.445,-39417.795,-5238.54,3513.1949999999997
1914.84,-38930.354999999996,-14336.144999999999,-43590.869999999995,-18927.719999999998,-39418.29,-5243.67,3520.665
1907.6399999999999,-38934.63,-14347.08,-43597.799999999996,-18937.844999999998,-39445.695,-5264.82,3510.855
1902.5549999999998,-38936.25,-14348.475,-43593.03,-18931.364999999998,-39444.93,-5265.585,3510.9449999999997
1903.86,-38927.159999999996,-14337.09,-43589.88,-18929.385,-39443.715,-5269.59,3513.33
1914.5249999999999,-38912.49,-14325.48,-43597.619999999995,-18944.1,-39446.46,-5258.429999999999,3522.96
1917.72,-38908.89,-14326.74,-43606.439999999995,-18946.62,-39423.33,-5236.875,3533.9849999999997
1918.845,-38899.979999999996,-14316.84,-43595.46,-18927.945,-39408.119999999995,-5245.875,3533.1299999999997
1935.675,-38880.945,-14301.539999999999,-43578.405,-18909.18,-39398.13,-5248.035,3540.825
1940.58,-38876.04,-14296.275,-43562.52,-18898.739999999998,-39407.985,-5249.115,3541.9049999999997
1953.225,-38864.744999999995,-14281.154999999999,-43546.77,-18900.54,-39422.744999999995,-5292.99,3548.835
2011.365,-38806.965,-14228.01,-43512.165,-18884.385,-39405.915,-5381.099999999999,3592.935
2028.51,-38793.015,-14218.695,-43511.13,-18889.065,-39405.6,-5341.635,3613.41
1979.7749999999999,-38857.814999999995,-14287.005,-43573.14,-18934.469999999998,-39418.875,-5205.465,3597.12
1889.82,-38953.08,-14361.029999999999,-43622.325,-18954.315,-39407.67,-5123.16,3532.9049999999997
1881.81,-38954.7,-14343.57,-43595.009999999995,-18931.454999999998,-39404.43,-5194.9349999999995,3504.42
1914.0749999999998,-38920.725,-14315.49,-43578.134999999995,-18930.78,-39423.465,-5242.995,3511.395
1946.8799999999999,-38894.22,-14296.994999999999,-43567.155,-18928.575,-39423.735,-5249.79,3529.7549999999997
1947.645,-38897.82,-14299.244999999999,-43560.99,-18921.915,-39418.244999999995,-5249.655,3537.585
1933.5149999999999,-38917.17,-14320.394999999999,-43574.939999999995,-18932.85,-39429.09,-5264.865,3526.6949999999997
1944.675,-38906.865,-14319.09,-43580.97,-18942.21,-39439.71,-5282.235,3528.9449999999997
1953.72,-38886.21,-14307.3,-43583.04,-18948.195,-39447.045,-5290.83,3537.585
1959.03,-38886.84,-14315.039999999999,-43578.81,-18946.98,-39456.585,-5285.7,3550.275
1938.6,-38917.845,-14322.824999999999,-43566.615,-18922.77,-39430.305,-5264.325,3550.23
1939.0049999999999,-38920.86,-14300.414999999999,-43549.244999999995,-18908.325,-39409.2,-5258.025,3551.535
1976.85,-38884.14,-14262.164999999999,-43532.775,-18909.855,-39410.775,-5262.48,3568.68
1995.48,-38860.875,-14260.949999999999,-43540.47,-18929.295,-39434.67,-5278.679999999999,3571.29
2017.845,-38837.924999999996,-14242.59,-43520.715,-18920.385,-39438.045,-5270.804999999999,3595.5
2017.935,-38818.619999999995,-14223.824999999999,-43499.7,-18905.67,-39438.63,-5273.099999999999,3592.395
2027.8799999999999,-38810.115,-14229.72,-43516.575,-18930.6,-39465.765,-5279.76,3590.145
2011.725,-38822.895,-14263.289999999999,-43556.04,-18958.545,-39475.845,-5279.94,3562.74
1988.0549999999998,-38843.235,-14278.185,-43555.86,-18942.57,-39454.74,-5276.295,3547.08
1984.905,-38837.43,-14273.685,-43530.705,-18903.465,-39429.494999999995,-5268.735,3556.08
1980.585,-38828.025,-14274.18,-43524.18,-18900.585,-39436.02,-5274.63,3557.3849999999998
1981.485,-38830.14,-14276.789999999999,-43529.895,-18916.739999999998,-39457.17,-5285.655,3560.895
1966.86,-38869.74,-14287.23,-43536.735,-18930.915,-39471.479999999996,-5291.505,3559.77
1960.83,-38912.939999999995,-14292.494999999999,-43527.645,-18928.53,-39470.49,-5289.84,3571.56
1990.8899999999999,-38900.744999999995,-14287.23,-43510.229999999996,-18920.43,-39463.965,-5288.085,3585.96
2026.0349999999999,-38833.515,-14262.345,-43504.604999999996,-18932.579999999998,-39482.82,-5314.815,3589.875
2013.84,-38812.814999999995,-14266.755,-43528.634999999995,-18951.075,-39493.755,-5321.7,3579.8849999999998
2004.7949999999998,-38820.645,-14274.09,-43543.395,-18957.059999999998,-39498.705,-5323.815,3573.4049999999997
2021.085,-38797.604999999996,-14248.035,-43516.755,-18931.094999999998,-39485.61,-5309.099999999999,3581.2349999999997
2025.0449999999998,-38794.005,-14247.269999999999,-43514.909999999996,-18917.415,-39467.475,-5281.38,3586.095
2025.945,-38802.33,-14254.605,-43522.02,-18921.87,-39472.29,-5279.715,3590.64
2028.33,-38801.34,-14243.265,-43508.61,-18904.905,-39454.02,-5286.735,3593.3849999999998
2033.46,-38796.119999999995,-14226.435,-43494.615,-18888.21,-39437.325,-5281.2,3600.81
2033.955,-38792.564999999995,-14230.845,-43504.65,-18898.11,-39450.915,-5285.88,3595.185
2056.68,-38756.97,-14202.225,-43487.729999999996,-18885.465,-39446.369999999995,-5276.7,3607.56
2079.045,-38752.155,-14179.05,-43477.74,-18886.545,-39452.625,-5275.62,3618.81
2082.555,-38806.244999999995,-14183.64,-43481.655,-18892.26,-39456.225,-5274.495,3629.7
2082.285,-38826.0,-14184.135,-43472.61,-18875.25,-39439.08,-5293.845,3643.56
2094.705,-38777.625,-14171.039999999999,-43463.115,-18858.96,-39424.455,-5316.165,3649.545
2106.81,-38722.409999999996,-14178.375,-43491.015,-18894.87,-39456.765,-5293.62,3645.495
2074.3199999999997,-38758.994999999995,-14216.039999999999,-43536.6,-18946.485,-39500.369999999995,-5250.915,3621.6
2072.205,-38759.85,-14205.644999999999,-43523.865,-18931.86,-39498.479999999996,-5258.79,3617.0099999999998
2084.4,-38754.494999999995,-14178.105,-43484.67,-18900.18,-39476.52,-5257.755,3637.71
2079.54,-38757.555,-14158.664999999999,-43463.564999999995,-18886.545,-39465.854999999996,-5272.83,3635.91
2111.535,-38716.965,-14147.91,-43483.725,-18909.899999999998,-39474.09,-5298.885,3648.555
2158.335,-38662.83,-14134.455,-43494.795,-18916.02,-39471.479999999996,-5349.825,3661.56
2171.0699999999997,-38661.255,-14134.59,-43499.205,-18916.11,-39478.365,-5371.38,3672.225
2131.4249999999997,-38715.479999999996,-14174.595,-43529.354999999996,-18929.745,-39486.015,-5306.04,3670.785
2046.51,-38790.18,-14220.09,-43538.49,-18919.305,-39480.75,-5241.6449999999995,3627.72
2009.475,-38808.18,-14225.939999999999,-43516.755,-18888.39,-39454.74,-5221.889999999999,3601.395
2039.1299999999999,-38773.17,-14193.81,-43492.59,-18880.515,-39456.27,-5239.53,3619.4849999999997
2075.58,-38745.27,-14178.555,-43492.5,-18897.75,-39485.475,-5278.995,3638.97
2101.185,-38733.299999999996,-14181.66,-43513.244999999995,-18911.565,-39500.685,-5290.38,3649.455
2133.495,-38708.01,-14165.865,-43511.13,-18906.165,-39495.825,-5290.83,3661.2
2132.0099999999998,-38726.549999999996,-14175.359999999999,-43515.45,-18912.015,-39502.575,-5301.63,3659.31
2109.96,-38760.255,-14189.984999999999,-43515.405,-18899.28,-39480.165,-5286.105,3664.17
2101.3199999999997,-38753.595,-14182.515,-43513.92,-18888.434999999998,-39461.4,-5279.355,3654.3599999999997
2104.245,-38750.445,-14177.115,-43525.305,-18906.704999999998,-39484.17,-5272.514999999999,3654.585
2082.06,-38739.689999999995,-14179.32,-43539.57,-18913.274999999998,-39492.405,-5282.955,3628.845
2057.85,-38736.99,-14173.965,-43540.92,-18893.745,-39468.51,-5298.255,3607.335
2073.7799999999997,-38751.39,-14199.57,-43550.235,-18894.96,-39463.38,-5299.965,3629.205
2109.06,-38765.564999999995,-14228.505,-43542.765,-18885.015,-39457.89,-5335.155,3652.1549999999997
2172.33,-38746.35,-14233.275,-43527.78,-18876.6,-39458.744999999995,-5379.57,3686.535
2177.325,-38727.0,-14166.81,-43518.15,-18905.489999999998,-39506.67,-5368.23,3682.935
2114.775,-38721.869999999995,-14119.74,-43530.795,-18937.844999999998,-39536.01,-5308.5599999999995,3633.8849999999998
2084.355,-38770.875,-14159.564999999999,-43538.534999999996,-18921.105,-39493.619999999995,-5277.375,3616.1549999999997
2071.665,-38829.555,-14175.269999999999,-43511.085,-18883.485,-39460.095,-5311.08,3608.8199999999997
2093.13,-38787.525,-14135.715,-43490.07,-18879.48,-39473.369999999995,-5345.639999999999,3619.2149999999997
2149.6949999999997,-38685.689999999995,-14099.67,-43505.865,-18917.64,-39524.22,-5381.28,3640.23
2180.025,-38670.615,-14112.269999999999,-43526.25,-18941.579999999998,-39547.215,-5399.01,3650.895
2188.17,-38680.155,-14115.51,-43516.439999999995,-18920.024999999998,-39511.665,-5369.67,3668.4
2135.88,-38722.185,-14125.59,-43514.82,-18905.67,-39481.74,-5339.25,3652.515
2122.02,-38722.049999999996,-14122.305,-43509.284999999996,-18901.17,-39475.755,-5334.345,3656.52
