ch_0,ch_1,ch_2,ch_3,ch_4,ch_5,ch_6,ch_7
377487.315,-56406.15,-34075.619999999995,-32933.475,-10485.449999999999,-32144.895,-7456.679999999999,-7159.365
377487.315,-56411.729999999996,-34082.46,-32943.284999999996,-10517.355,-32181.344999999998,-7471.259999999999,-7159.815
377487.315,-56407.454999999994,-34080.75,-32945.13,-10532.475,-32221.26,-7494.929999999999,-7159.23
377487.315,-56396.295,-34070.58,-32939.1,-10563.39,-32272.425,-7505.28,-7155.495
377487.315,-56376.945,-34057.08,-32916.284999999996,-10566.81,-32290.649999999998,-7510.995,-7144.83
377487.315,-56387.34,-34068.915,-32920.56,-10535.85,-32235.254999999997,-7512.21,-7155.855
377487.315,-56391.795,-34068.915,-32911.47,-10485.045,-32189.85,-7493.849999999999,-7160.13
377487.315,-56397.915,-34071.345,-32913.99,-10486.215,-32189.805,-7482.6449999999995,-7163.415
377487.315,-56401.965,-34072.875,-32917.68,-10442.385,-32168.43,-7462.844999999999,-7165.035
377487.315,-56419.29,-34090.38,-32939.055,-10419.074999999999,-32123.879999999997,-7453.035,-7179.03
377487.315,-56412.314999999995,-34082.1,-32939.19,-10404.855,-32074.739999999998,-7447.7699999999995,-7174.98
377487.315,-56383.829999999994,-34055.1,-32927.67,-10460.789999999999,-32117.265,-7451.82,-7147.755
377487.315,-56374.92,-34043.265,-32921.549999999996,-10515.24,-32192.37,-7474.815,-7139.474999999999
377487.315,-56379.104999999996,-34050.015,-32926.185,-10555.289999999999,-32276.295,-7507.575,-7150.275
377487.315,-56380.905,-34052.04,-32920.965,-10596.24,-32315.399999999998,-7511.8949999999995,-7151.58
377487.315,-56381.625,-34053.165,-32911.02,-10565.685,-32252.94,-7497.495,-7152.165
377487.315,-56375.415,-34049.115,-32895.315,-10543.23,-32212.934999999998,-7475.264999999999,-7148.25
377487.315,-56388.15,-34056.72,-32893.02,-10505.025,-32201.684999999998,-7464.24,-7157.205
377487.315,-56406.869999999995,-34071.255,-32908.229999999996,-10501.92,-32196.87,-7446.375,-7159.455
377487.315,-56459.25,-34132.95,-32963.895,-10539.494999999999,-32204.43,-7448.04,-7179.344999999999
377487.315,-56461.545,-34144.784999999996,-32986.53,-10583.234999999999,-32225.399999999998,-7458.615,-7174.755
377487.315,-56409.795,-34088.985,-32959.845,-10577.475,-32247.495,-7484.13,-7164.2699999999995
377487.315,-56387.924999999996,-34059.015,-32937.659999999996,-10560.69,-32241.465,-7493.94,-7160.58
377487.315,-56372.31,-34043.31,-32922.09,-10541.88,-32228.82,-7498.844999999999,-7152.03
377487.315,-56366.82,-34029.765,-32910.795,-10530.404999999999,-32220.225,-7504.695,-7152.705
377487.315,-56372.579999999994,-34036.965,-32921.145,-10532.699999999999,-32220.0,-7500.6449999999995,-7159.905
377487.315,-56396.744999999995,-34063.38,-32939.595,-10532.52,-32208.704999999998,-7493.264999999999,-7172.775
377487.315,-56409.795,-34079.354999999996,-32941.845,-10517.445,-32190.434999999998,-7475.58,-7173.99
377487.315,-56398.32,-34071.659999999996,-32929.02,-10504.529999999999,-32180.309999999998,-7459.29,-7161.03
377487.315,-56398.049999999996,-34067.79,-32924.07,-10505.52,-32183.235,-7453.304999999999,-7164.045
377487.315,-56378.34,-34043.04,-32906.744999999995,-10491.84,-32175.045,-7440.884999999999,-7147.575
377487.315,-56386.845,-34046.28,-32908.725,-10473.795,-32143.364999999998,-7438.455,-7147.62
377487.315,-56397.509999999995,-34055.955,-32910.119999999995,-10452.645,-32103.719999999998,-7452.945,-7164.045
377487.315,-56382.615,-34035.345,-32882.445,-10426.32,-32077.98,-7465.455,-7161.48
377487.315,-56367.27,-34024.275,-32878.305,-10444.545,-32144.445,-7510.95,-7156.44
377487.315,-56353.68,-34032.869999999995,-32899.095,-10486.755,-32189.805,-7510.41,-7148.474999999999
377487.315,-56367.27,-34060.14,-32934.06,-10553.13,-32247.315,-7498.17,-7151.219999999999
377487.315,-56386.53,-34069.409999999996,-32940.945,-10565.55,-32265.855,-7486.74,-7164.495
377487.315,-56391.795,-34070.13,-32940.315,-10589.49,-32234.579999999998,-7464.69,-7156.53
377487.315,-56406.06,-34081.065,-32946.165,-10570.365,-32227.829999999998,-7476.795,-7172.594999999999
377487.315,-56410.11,-34083.18,-32943.24,-10539.359999999999,-32245.785,-7479.405,-7174.53
377487.315,-56430.18,-34103.61,-32962.86,-10542.96,-32258.204999999998,-7483.365,-7178.49
377487.315,-56415.555,-34077.51,-32938.515,-10509.119999999999,-32210.055,-7479.764999999999,-7169.04
377487.315,-56402.28,-34056.494999999995,-32921.865,-10481.4,-32177.565,-7482.96,-7165.62
377487.315,-56378.025,-34041.645,-32913.63,-10462.32,-32158.574999999997,-7491.195,-7155.99
377487.315,-56376.585,-34051.229999999996,-32918.04,-10447.289999999999,-32121.045,-7484.445,-7158.6449999999995
377487.315,-56366.189999999995,-34041.42,-32907.24,-10479.69,-32153.76,-7485.615,-7155.495
377487.315,-56374.92,-34050.869999999995,-32920.47,-10515.914999999999,-32204.879999999997,-7488.8099999999995,-7164.36
377487.315,-56397.869999999995,-34074.36,-32949.945,-10493.73,-32192.28,-7469.639999999999,-7169.804999999999
377487.315,-56396.88,-34079.805,-32958.674999999996,-10503.72,-32206.274999999998,-7460.865,-7168.455
377487.315,-56407.454999999994,-34092.27,-32949.72,-10508.94,-32168.385,-7442.19,-7173.8099999999995
377487.315,-56427.659999999996,-34121.43,-32955.93,-10523.475,-32106.96,-7423.875,-7172.955
377487.315,-56425.275,-34121.43,-32957.595,-10521.135,-32096.204999999998,-7431.795,-7145.19
377487.315,-56425.409999999996,-34124.67,-32962.229999999996,-10519.515,-32166.539999999997,-7474.23,-7142.264999999999
377487.315,-56423.744999999995,-34108.74,-32941.89,-10539.63,-32227.289999999997,-7495.0199999999995,-7158.014999999999
377487.315,-56422.935,-34086.42,-32939.865,-10573.109999999999,-32256.225,-7523.639999999999,-7174.71
377487.315,-56403.72,-34053.93,-32939.64,-10604.789999999999,-32311.934999999998,-7544.295,-7173.09
377487.315,-56386.485,-34032.375,-32932.125,-10566.99,-32264.91,-7521.57,-7174.9349999999995
377487.315,-56384.595,-34028.64,-32927.76,-10534.994999999999,-32228.055,-7492.139999999999,-7178.264999999999
377487.315,-56410.604999999996,-34052.94,-32940.315,-10529.82,-32226.344999999998,-7479.8099999999995,-7191.179999999999
377487.315,-56419.424999999996,-34062.84,-32938.424999999996,-10520.19,-32219.145,-7471.844999999999,-7183.755
377487.315,-56414.204999999994,-34064.01,-32933.7,-10510.515,-32204.43,-7465.005,-7171.695
377487.315,-56407.5,-34063.83,-32938.065,-10524.465,-32204.43,-7483.5,-7171.605
377487.315,-56390.13,-34049.655,-32930.055,-10529.91,-32223.87,-7508.745,-7169.13
377487.315,-56386.799999999996,-34050.375,-32941.125,-10524.555,-32226.75,-7512.57,-7167.554999999999
377487.315,-56381.579999999994,-34048.034999999996,-32943.42,-10537.38,-32229.045,-7507.889999999999,-7162.11
377487.315,-56386.755,-34047.81,-32935.365,-10585.215,-32252.355,-7507.665,-7165.215
377487.315,-56391.84,-34055.369999999995,-32924.79,-10543.14,-32200.515,-7477.38,-7164.179999999999
377487.315,-56412.54,-34080.03,-32933.744999999995,-10495.71,-32141.024999999998,-7442.6849999999995,-7169.67
377487.315,-56439.854999999996,-34104.69,-32945.895,-10461.33,-32087.925,-7422.795,-7182.0
377487.315,-56435.445,-34103.79,-32949.36,-10436.22,-32077.305,-7428.825,-7177.634999999999
377487.315,-56406.465,-34073.28,-32934.915,-10455.029999999999,-32135.265,-7454.115,-7158.599999999999
377487.315,-56399.67,-34072.065,-32946.03,-10509.029999999999,-32213.879999999997,-7480.799999999999,-7158.69
377487.315,-56401.784999999996,-34079.895,-32962.14,-10553.085,-32272.02,-7491.014999999999,-7158.69
377487.315,-56410.515,-34071.659999999996,-32948.909999999996,-10591.74,-32245.605,-7502.49,-7166.88
377487.315,-56396.88,-34059.104999999996,-32932.89,-10566.0,-32237.055,-7507.62,-7157.295
377487.315,-56377.125,-34049.07,-32929.604999999996,-10543.994999999999,-32238.495,-7507.665,-7156.304999999999
377487.315,-56387.025,-34063.335,-32940.315,-10524.645,-32236.155,-7506.495,-7169.67
377487.315,-56400.884999999995,-34079.94,-32950.08,-10497.465,-32212.754999999997,-7483.815,-7172.099999999999
377487.315,-56420.055,-34094.07,-32969.07,-10498.14,-32195.52,-7468.11,-7176.78
377487.315,-56407.229999999996,-34073.235,-32968.395,-10533.465,-32200.155,-7470.495,-7171.92
377487.315,-56401.829999999994,-34059.735,-32962.455,-10586.43,-32216.399999999998,-7487.505,-7169.715
377487.315,-56411.865,-34066.619999999995,-32951.295,-10601.595,-32248.754999999997,-7498.755,-7173.54
377487.315,-56432.52,-34083.315,-32954.13,-10586.744999999999,-32247.315,-7506.855,-7189.2
377487.315,-56425.814999999995,-34076.475,-32945.715,-10529.279999999999,-32204.024999999998,-7513.785,-7186.815
377487.315,-56418.57,-34070.4,-32943.645,-10506.24,-32196.239999999998,-7516.349999999999,-7187.94
377487.315,-56435.354999999996,-34094.655,-32970.869999999995,-10512.945,-32188.815,-7515.36,-7199.594999999999
377487.315,-56435.22,-34098.659999999996,-32973.615,-10535.22,-32200.739999999998,-7504.605,-7195.094999999999
377487.315,-56436.255,-34098.345,-32971.095,-10536.435,-32212.844999999998,-7502.445,-7195.995
377487.315,-56443.59,-34100.955,-32974.65,-10529.82,-32232.195,-7508.7,-7211.745
377487.315,-56449.89,-34101.315,-32967.945,-10527.164999999999,-32205.015,-7495.065,-7220.25
377487.315,-56472.84,-34116.165,-32979.69,-10541.34,-32179.094999999998,-7485.615,-7221.735
377487.315,-56477.61,-34125.21,-32993.369999999995,-10577.205,-32200.649999999998,-7487.82,-7198.875
377487.315,-56479.005,-34133.534999999996,-33001.875,-10615.32,-32270.579999999998,-7514.19,-7197.929999999999
377487.315,-56466.945,-34121.655,-32996.88,-10601.369999999999,-32291.91,-7535.34,-7202.565
377487.315,-56445.39,-34106.445,-32993.369999999995,-10579.275,-32253.524999999998,-7535.384999999999,-7199.639999999999
377487.315,-56428.875,-34084.08,-32976.36,-10588.32,-32228.324999999997,-7536.509999999999,-7204.724999999999
377487.315,-56410.965,-34054.74,-32945.22,-10551.69,-32184.449999999997,-7513.514999999999,-7201.035
377487.315,-56416.14,-34060.905,-32948.685,-10540.755,-32154.795,-7483.86,-7193.79
377487.315,-56439.314999999995,-34084.665,-32972.445,-10560.105,-32191.469999999998,-7487.1449999999995,-7196.219999999999
377487.315,-56435.715,-34084.89,-32970.284999999996,-10562.895,-32249.879999999997,-7497.764999999999,-7186.815
377487.315,-56440.125,-34088.715,-32972.445,-10564.74,-32260.184999999998,-7518.33,-7190.505
377487.315,-56454.299999999996,-34099.92,-32983.11,-10579.095,-32312.385,-7533.2699999999995,-7201.215
377487.315,-56458.395,-34105.86,-32984.325,-10569.42,-32277.105,-7525.755,-7201.53
377487.315,-56450.07,-34095.69,-32966.28,-10552.59,-32253.66,-7523.594999999999,-7198.65
377487.315,-56442.104999999996,-34090.695,-32957.955,-10530.045,-32213.925,-7514.415,-7195.41
377487.315,-56436.299999999996,-34090.47,-32961.24,-10535.49,-32205.195,-7516.17,-7194.915
377487.315,-56440.665,-34100.549999999996,-32968.395,-10549.395,-32240.25,-7516.755,-7194.6449999999995
377487.315,-56457.765,-34122.69,-32977.485,-10535.805,-32218.245,-7495.38,-7198.92
377487.315,-56480.985,-34145.055,-32987.43,-10483.695,-32150.114999999998,-7480.799999999999,-7211.79
377487.315,-56471.4,-34138.575,-32964.345,-10395.99,-32085.539999999997,-7465.995,-7203.105
377487.315,-56454.525,-34130.88,-32957.145,-10363.185,-32092.155,-7479.09,-7192.17
377487.315,-56453.67,-34144.38,-33001.604999999996,-10436.805,-32184.675,-7502.804999999999,-7187.445
377487.315,-56443.005,-34133.715,-33028.2,-10597.5,-32299.605,-7504.74,-7180.065
377487.315,-56468.475,-34140.78,-33029.415,-10645.875,-32289.03,-7509.825,-7196.715
377487.315,-56481.615,-34123.455,-33000.255,-10581.93,-32193.719999999998,-7510.724999999999,-7208.19
377487.315,-56451.915,-34072.83,-32964.299999999996,-10556.1,-32171.625,-7514.19,-7202.205
377487.315,-56424.42,-34050.78,-32954.265,-10575.675,-32160.329999999998,-7511.13,-7197.795
377487.315,-56412.314999999995,-34054.065,-32958.585,-10573.785,-32205.87,-7527.014999999999,-7188.255
377487.315,-56430.0,-34070.58,-32970.42,-10561.994999999999,-32282.37,-7528.679999999999,-7197.705
377487.315,-56452.095,-34098.165,-32992.74,-10580.895,-32283.629999999997,-7509.509999999999,-7203.78
377487.315,-56453.759999999995,-34106.85,-32998.049999999996,-10609.83,-32299.965,-7502.804999999999,-7202.79
377487.315,-56439.494999999995,-34092.045,-32980.365,-10608.525,-32294.43,-7498.665,-7190.865
377487.315,-56433.689999999995,-34085.43,-32971.994999999995,-10604.475,-32267.114999999998,-7510.455,-7190.73
377487.315,-56424.645,-34076.205,-32969.25,-10615.904999999999,-32284.62,-7536.42,-7196.849999999999
377487.315,-56415.509999999995,-34064.28,-32954.445,-10576.17,-32256.539999999997,-7528.005,-7197.3
377487.315,-56413.439999999995,-34059.735,-32943.375,-10555.154999999999,-32234.175,-7512.929999999999,-7194.42
377487.315,-56410.515,-34056.45,-32939.865,-10550.565,-32226.704999999998,-7499.7,-7188.705
377487.315,-56424.869999999995,-34074.54,-32956.244999999995,-10554.48,-32221.485,-7486.469999999999,-7192.44
377487.315,-56447.189999999995,-34097.13,-32971.725,-10554.93,-32213.835,-7477.0199999999995,-7209.045
377487.315,-56467.979999999996,-34106.58,-32969.97,-10539.045,-32193.945,-7458.705,-7212.42
377487.315,-56499.165,-34128.045,-32980.365,-10535.175,-32178.78,-7457.715,-7222.094999999999
377487.315,-56491.244999999995,-34125.479999999996,-32992.515,-10540.89,-32172.254999999997,-7463.565,-7209.54
377487.315,-56450.744999999995,-34097.04,-32989.725,-10556.82,-32189.129999999997,-7500.465,-7203.6449999999995
377487.315,-56421.0,-34064.729999999996,-32960.295,-10529.73,-32165.73,-7513.5599999999995,-7198.38
377487.315,-56410.829999999994,-34063.74,-32963.445,-10536.615,-32202.36,-7532.37,-7194.78
377487.315,-56410.515,-34065.99,-32961.825,-10543.949999999999,-32267.385,-7526.295,-7192.304999999999
377487.315,-56435.04,-34084.44,-32968.17,-10562.67,-32220.315,-7499.25,-7206.389999999999
377487.315,-56452.14,-34092.99,-32968.755,-10543.185,-32178.285,-7480.17,-7210.44
377487.315,-56445.704999999994,-34090.695,-32975.82,-10543.455,-32197.364999999998,-7473.465,-7197.615
377487.315,-56444.265,-34097.13,-32987.205,-10553.805,-32263.965,-7476.929999999999,-7191.945
377487.315,-56460.689999999995,-34120.845,-32996.25,-10538.595,-32250.78,-7487.009999999999,-7202.565
377487.315,-56466.27,-34123.455,-32983.155,-10498.23,-32187.059999999998,-7476.615,-7209.224999999999
377487.315,-56462.49,-34115.22,-32970.51,-10465.47,-32146.92,-7478.865,-7213.815
377487.315,-56447.909999999996,-34099.74,-32974.065,-10473.795,-32153.579999999998,-7503.12,-7208.099999999999
377487.315,-56444.445,-34085.52,-32974.02,-10524.285,-32203.079999999998,-7517.969999999999,-7197.66
377487.315,-56429.28,-34068.735,-32964.299999999996,-10549.44,-32267.07,-7507.9349999999995,-7188.75
377487.315,-56434.59,-34075.395,-32972.354999999996,-10555.92,-32231.655,-7484.94,-7189.785
377487.315,-56439.494999999995,-34079.13,-32965.11,-10566.539999999999,-32180.129999999997,-7463.565,-7191.8099999999995
377487.315,-56458.305,-34096.5,-32968.845,-10551.33,-32184.719999999998,-7462.035,-7205.13
