ch_0,ch_1,ch_2,ch_3,ch_4,ch_5,ch_6,ch_7
2319.0299999999997,-31164.03,-10114.065,-25665.57,-17994.465,-13043.115,-2899.89,5204.025
2326.095,-31159.35,-10105.109999999999,-25663.004999999997,-17991.495,-13041.63,-2892.69,5212.3949999999995
2323.125,-31156.155,-10085.58,-25675.469999999998,-18004.32,-13053.33,-2893.815,5207.849999999999
2328.5699999999997,-31145.805,-10065.105,-25673.94,-18002.07,-13048.47,-2889.27,5214.69
2325.105,-31165.02,-10091.925,-25676.055,-17996.489999999998,-13039.92,-2883.1949999999997,5215.32
2328.93,-31180.59,-10121.13,-25676.73,-17988.84,-13029.164999999999,-2876.67,5220.045
2316.555,-31177.215,-10116.585,-25674.12,-17989.29,-13034.654999999999,-2890.44,5205.0599999999995
2299.9049999999997,-31185.855,-10128.869999999999,-25670.385,-17993.16,-13045.949999999999,-2906.055,5186.655
2305.35,-31198.545,-10141.695,-25662.96,-17985.555,-13040.279999999999,-2902.5899999999997,5195.429999999999
2300.535,-31203.18,-10147.32,-25669.844999999998,-17992.71,-13045.095,-2902.5899999999997,5190.525
2304.72,-31188.059999999998,-10132.425,-25667.73,-17993.79,-13046.265,-2906.505,5192.6849999999995
2292.39,-31204.934999999998,-10147.455,-25683.57,-18008.864999999998,-13059.494999999999,-2911.815,5181.255
2294.145,-31210.739999999998,-10151.414999999999,-25688.565,-18012.6,-13062.644999999999,-2910.015,5183.91
2306.16,-31201.965,-10142.414999999999,-25680.285,-18004.32,-13052.34,-2903.04,5197.455
2303.8199999999997,-31200.57,-10140.615,-25678.575,-18004.545,-13052.744999999999,-2904.39,5194.53
2298.645,-31208.805,-10148.58,-25685.82,-18011.565,-13058.505,-2906.91,5189.4
2311.47,-31196.789999999997,-10135.71,-25673.94,-17999.64,-13048.244999999999,-2900.52,5201.1449999999995
2306.565,-31203.539999999997,-10141.515,-25678.44,-18002.25,-13048.244999999999,-2900.79,5197.41
2291.94,-31219.379999999997,-10155.779999999999,-25692.164999999997,-18015.704999999998,-13059.539999999999,-2908.08,5184.675
2296.08,-31214.43,-10149.57,-25687.934999999998,-18013.05,-13056.795,-2907.18,5190.255
2285.46,-31227.12,-10163.565,-25700.219999999998,-18022.815,-13062.869999999999,-2909.97,5182.0199999999995
2286.1349999999998,-31233.555,-10174.904999999999,-25708.23,-18026.73,-13063.814999999999,-2909.88,5183.955
2297.745,-31221.765,-10162.98,-25695.899999999998,-18015.255,-13053.644999999999,-2905.83,5193.405
2300.085,-31217.67,-10158.21,-25689.42,-18013.545,-13052.205,-2906.73,5191.965
2291.67,-31226.489999999998,-10167.345,-25696.754999999997,-18021.915,-13061.295,-2915.8199999999997,5180.8949999999995
2286.0899999999997,-31235.219999999998,-10174.859999999999,-25703.28,-18027.18,-13064.039999999999,-2916.99,5178.465
2281.86,-31241.295,-10180.08,-25708.454999999998,-18032.219999999998,-13066.064999999999,-2918.295,5175.36
2281.41,-31242.914999999997,-10183.77,-25711.739999999998,-18033.614999999998,-13064.039999999999,-2917.7999999999997,5175.2699999999995
2288.115,-31236.344999999998,-10178.19,-25709.309999999998,-18029.52,-13056.48,-2915.415,5182.785
2285.325,-31238.73,-10174.14,-25715.61,-18039.239999999998,-13061.34,-2916.4049999999997,5180.625
2263.23,-31259.114999999998,-10186.965,-25736.219999999998,-18062.82,-13079.519999999999,-2930.4,5160.105
2260.71,-31259.835,-10190.97,-25747.695,-18068.85,-13082.31,-2935.2599999999998,5156.639999999999
2260.98,-31263.254999999997,-10210.095,-25758.315,-18063.045,-13072.455,-2930.4,5159.745
2263.185,-31263.84,-10212.164999999999,-25738.02,-18043.875,-13059.404999999999,-2925.72,5163.12
2242.395,-31286.114999999998,-10217.025,-25726.454999999998,-18049.14,-13069.439999999999,-2940.165,5143.7699999999995
2253.96,-31281.614999999998,-10228.59,-25726.14,-18042.975,-13062.33,-2933.685,5154.705
2250.495,-31274.504999999997,-10222.335,-25732.98,-18049.68,-13067.82,-2938.275,5150.16
2236.9049999999997,-31288.32,-10203.48,-25736.129999999997,-18062.73,-13078.845,-2945.115,5138.505
2247.48,-31293.045,-10183.455,-25731.945,-18065.475,-13078.98,-2937.24,5150.88
2246.67,-31297.68,-10211.805,-25755.975,-18087.12,-13092.885,-2934.0899999999997,5149.53
2257.605,-31299.795,-10268.82,-25774.065,-18082.62,-13080.869999999999,-2925.1349999999998,5160.825
2252.3849999999998,-31309.11,-10306.44,-25788.645,-18077.579999999998,-13077.63,-2928.555,5156.55
2233.89,-31300.829999999998,-10289.609999999999,-25780.274999999998,-18074.655,-13088.97,-2950.1099999999997,5132.205
2226.285,-31292.324999999997,-10272.645,-25741.305,-18054.945,-13084.019999999999,-2963.0699999999997,5121.224999999999
2208.555,-31318.289999999997,-10282.365,-25759.125,-18074.745,-13100.4,-2966.7149999999997,5108.4
2210.805,-31320.225,-10273.904999999999,-25771.995,-18085.274999999998,-13106.97,-2965.9049999999997,5112.585
2217.645,-31310.235,-10223.19,-25771.364999999998,-18092.204999999998,-13110.164999999999,-2962.935,5120.099999999999
2202.12,-31333.14,-10189.935,-25810.289999999997,-18132.12,-13134.734999999999,-2964.915,5111.865
2199.555,-31374.27,-10225.664999999999,-25847.325,-18146.565,-13132.664999999999,-2954.97,5120.73
2191.95,-31409.055,-10340.19,-25874.594999999998,-18142.739999999998,-13121.73,-2941.9649999999997,5120.37
2215.485,-31390.425,-10429.47,-25852.23,-18102.149999999998,-13096.664999999999,-2926.935,5134.41
2221.02,-31296.87,-10358.91,-25762.364999999998,-18062.73,-13109.4,-2970.99,5108.625
2220.345,-31274.055,-10267.065,-25715.385,-18061.469999999998,-13132.17,-2993.7599999999998,5101.5599999999995
2228.31,-31292.324999999997,-10273.5,-25742.16,-18070.29,-13125.96,-2971.62,5119.11
2224.08,-31307.94,-10285.154999999999,-25760.43,-18079.29,-13127.625,-2968.1549999999997,5119.335
2216.745,-31319.55,-10291.455,-25768.89,-18083.52,-13131.494999999999,-2972.9249999999997,5113.17
2200.3199999999997,-31338.719999999998,-10306.529999999999,-25782.03,-18093.96,-13142.025,-2978.64,5098.724999999999
2201.715,-31339.035,-10307.97,-25786.53,-18095.445,-13141.439999999999,-2976.66,5101.83
2196.72,-31343.219999999998,-10314.09,-25799.85,-18107.19,-13150.125,-2979.27,5097.285
2206.485,-31335.704999999998,-10305.81,-25797.015,-18103.005,-13143.105,-2972.79,5106.78
2194.56,-31350.824999999997,-10320.48,-25810.155,-18114.614999999998,-13150.98,-2977.605,5096.205
2196.27,-31351.05,-10320.885,-25810.515,-18114.795,-13149.359999999999,-2978.8199999999997,5098.635
2186.73,-31363.11,-10333.44,-25821.945,-18124.92,-13156.38,-2983.68,5089.679999999999
2196.495,-31353.66,-10322.64,-25810.02,-18115.065,-13146.39,-2982.1949999999997,5098.679999999999
2190.69,-31361.355,-10330.154999999999,-25816.59,-18120.555,-13148.64,-2983.8599999999997,5093.099999999999
2189.0699999999997,-31362.795,-10332.99,-25818.93,-18123.39,-13150.26,-2984.625,5093.325
2188.755,-31365.405,-10336.095,-25821.045,-18125.64,-13152.06,-2983.5899999999997,5092.5599999999995
2180.205,-31375.395,-10346.445,-25828.965,-18134.594999999998,-13158.99,-2987.5499999999997,5083.92
2187.4049999999997,-31368.465,-10340.55,-25823.879999999997,-18130.905,-13153.32,-2985.2999999999997,5091.075
2187.855,-31366.215,-10339.154999999999,-25823.07,-18130.905,-13153.59,-2987.865,5092.0199999999995
2176.56,-31376.475,-10349.91,-25831.62,-18139.454999999998,-13160.654999999999,-2995.38,5081.985
2176.1549999999997,-31377.914999999997,-10352.744999999999,-25832.565,-18139.77,-13160.07,-2994.255,5081.804999999999
2161.17,-31397.265,-10374.39,-25848.719999999998,-18154.26,-13171.365,-3000.105,5067.495
2161.485,-31398.524999999998,-10377.27,-25848.719999999998,-18154.305,-13168.89,-3002.04,5068.035
2150.64,-31408.289999999997,-10385.73,-25860.51,-18166.59,-13180.095,-3008.88,5057.235
2153.3849999999998,-31403.385,-10378.664999999999,-25859.565,-18168.03,-13182.164999999999,-3008.295,5059.44
2159.1,-31395.555,-10372.77,-25855.739999999998,-18164.565,-13178.205,-3006.315,5064.66
2172.375,-31384.215,-10354.904999999999,-25844.895,-18154.53,-13167.314999999999,-2999.3849999999998,5077.125
2171.97,-31392.629999999997,-10364.445,-25849.079999999998,-18157.95,-13165.965,-2996.865,5078.025
2161.62,-31406.895,-10399.904999999999,-25866.27,-18170.19,-13174.244999999999,-3000.4649999999997,5068.26
2163.87,-31398.57,-10388.565,-25865.37,-18171.315,-13175.955,-3002.22,5067.045
2173.5,-31388.94,-10375.56,-25853.625,-18159.84,-13162.68,-2996.325,5077.845
2159.775,-31411.844999999998,-10388.475,-25859.745,-18161.55,-13162.095,-2998.17,5068.575
2158.605,-31410.315,-10373.984999999999,-25844.715,-18153.945,-13157.055,-3008.3399999999997,5066.235
2139.48,-31421.114999999998,-10388.295,-25869.69,-18179.594999999998,-13176.359999999999,-3019.3199999999997,5047.38
2140.065,-31412.024999999998,-10389.824999999999,-25890.48,-18197.28,-13188.644999999999,-3019.0499999999997,5045.58
2151.855,-31409.055,-10402.56,-25884.765,-18184.635,-13172.4,-3008.115,5058.135
2151.54,-31437.539999999997,-10454.445,-25886.745,-18176.535,-13162.545,-2997.63,5062.275
2143.845,-31440.824999999997,-10476.225,-25895.16,-18178.29,-13170.42,-3010.725,5049.585
2125.17,-31436.73,-10453.185,-25872.795,-18171.315,-13179.33,-3030.8849999999998,5029.425
2119.095,-31428.449999999997,-10441.484999999999,-25870.23,-18176.219999999998,-13186.305,-3039.39,5020.47
2128.455,-31425.75,-10420.289999999999,-25874.504999999997,-18181.215,-13186.89,-3034.5299999999997,5031.72
2142.855,-31430.655,-10412.369999999999,-25868.34,-18171.63,-13176.945,-3025.44,5050.575
2130.48,-31465.754999999997,-10440.855,-25882.965,-18180.719999999998,-13182.93,-3021.705,5043.96
2116.935,-31458.015,-10433.205,-25900.02,-18206.594999999998,-13209.345,-3038.13,5026.635
2123.685,-31425.164999999997,-10387.98,-25884.585,-18200.43,-13208.67,-3038.49,5028.75
2113.335,-31465.125,-10418.355,-25887.42,-18196.335,-13206.24,-3035.16,5025.105
2123.235,-31486.364999999998,-10484.73,-25893.45,-18179.954999999998,-13189.095,-3022.515,5036.58
2126.25,-31466.204999999998,-10537.065,-25913.565,-18187.38,-13197.51,-3030.75,5031.8099999999995
2132.955,-31435.155,-10514.565,-25900.92,-18185.94,-13201.515,-3035.835,5033.474999999999
2123.955,-31437.36,-10488.914999999999,-25891.695,-18187.11,-13205.744999999999,-3040.605,5025.0599999999995
2110.41,-31460.129999999997,-10495.664999999999,-25905.78,-18202.68,-13217.805,-3045.015,5014.035
2118.1949999999997,-31455.855,-10486.574999999999,-25905.96,-18201.239999999998,-13215.869999999999,-3042.315,5021.55
2111.805,-31465.844999999998,-10485.855,-25909.605,-18205.245,-13217.4,-3042.315,5016.825
2104.6949999999997,-31478.085,-10495.44,-25915.725,-18210.239999999998,-13223.295,-3046.095,5011.47
2095.92,-31487.355,-10515.195,-25926.075,-18218.79,-13230.494999999999,-3049.335,5004.405
2102.58,-31477.949999999997,-10510.02,-25922.925,-18215.055,-13225.68,-3047.31,5011.38
2096.2799999999997,-31485.87,-10508.355,-25927.245,-18220.05,-13230.99,-3050.5499999999997,5005.304999999999
2103.0299999999997,-31480.199999999997,-10499.58,-25920.405,-18212.715,-13225.23,-3047.895,5012.28
2093.04,-31491.765,-10511.414999999999,-25929.18,-18221.94,-13232.654999999999,-3051.9449999999997,5003.73
2099.6549999999997,-31487.265,-10506.96,-25924.454999999998,-18218.34,-13228.515,-3049.92,5009.175
2100.285,-31487.355,-10506.914999999999,-25924.32,-18218.16,-13227.255,-3045.5099999999998,5010.75
2090.97,-31497.03,-10517.13,-25933.77,-18226.62,-13234.59,-3046.9049999999997,5003.595
2096.73,-31492.305,-10510.965,-25927.515,-18220.23,-13227.255,-3044.3849999999998,5010.57
2082.5099999999998,-31507.829999999998,-10525.095,-25938.629999999997,-18231.614999999998,-13237.38,-3052.305,4995.945
2085.8849999999998,-31505.445,-10522.215,-25934.579999999998,-18228.51,-13235.58,-3053.295,4996.62
2081.3849999999998,-31511.16,-10528.109999999999,-25939.62,-18233.594999999998,-13240.305,-3057.12,4992.12
2094.435,-31497.704999999998,-10514.565,-25928.82,-18225.09,-13232.43,-3054.015,5003.235
2091.1949999999997,-31501.125,-10520.145,-25937.055,-18233.28,-13237.154999999999,-3055.545,5000.04
2079.27,-31513.815,-10531.035,-25952.895,-18250.785,-13250.789999999999,-3060.4049999999997,4990.95
2085.255,-31507.965,-10529.01,-25951.05,-18248.355,-13247.189999999999,-3058.515,4996.845
2084.355,-31513.5,-10543.994999999999,-25960.184999999998,-18250.739999999998,-13245.3,-3055.365,4997.16
2075.4449999999997,-31521.914999999997,-10554.21,-25966.17,-18252.675,-13247.775,-3059.64,4989.0599999999995
2082.375,-31508.954999999998,-10532.025,-25947.36,-18239.085,-13236.39,-3058.245,4994.595
2076.12,-31513.905,-10529.775,-25944.48,-18240.614999999998,-13236.255,-3061.44,4988.745
2064.7799999999997,-31524.074999999997,-10541.565,-25961.715,-18257.445,-13248.269999999999,-3067.245,4978.889999999999
2062.755,-31529.204999999998,-10558.574999999999,-25971.48,-18261.405,-13249.035,-3069.045,4979.025
2068.6949999999997,-31534.379999999997,-10550.295,-25962.21,-18250.92,-13237.83,-3064.8599999999997,4985.1449999999995
2057.7599999999998,-31555.53,-10554.39,-25970.895,-18259.2,-13243.365,-3068.73,4976.325
2063.565,-31540.184999999998,-10564.47,-25965.315,-18256.59,-13241.295,-3066.165,4980.105
2062.125,-31549.86,-10590.39,-25967.43,-18254.745,-13236.21,-3060.495,4980.33
2060.505,-31548.824999999997,-10593.27,-25965.45,-18249.704999999998,-13231.845,-3063.285,4976.37
2070.81,-31517.954999999998,-10563.345,-25941.42,-18234.18,-13224.015,-3066.705,4981.679999999999
2073.375,-31509.135,-10554.705,-25935.03,-18230.76,-13222.89,-3067.875,4982.3099999999995
2066.04,-31524.164999999997,-10570.77,-25946.64,-18241.155,-13229.73,-3068.775,4977.9
2066.4,-31523.489999999998,-10562.984999999999,-25949.655,-18247.14,-13236.255,-3069.855,4977.495
2062.5299999999997,-31536.495,-10563.48,-25952.985,-18248.219999999998,-13237.289999999999,-3068.955,4975.83
2047.635,-31554.315,-10579.635,-25971.66,-18263.925,-13249.17,-3076.245,4962.735
2051.0099999999998,-31552.559999999998,-10578.42,-25975.395,-18264.825,-13246.875,-3076.47,4967.55
2038.995,-31570.829999999998,-10607.31,-25984.44,-18266.579999999998,-13246.83,-3074.22,4958.235
2040.705,-31572.855,-10601.279999999999,-25972.515,-18253.395,-13234.59,-3067.47,4959.945
2034.4499999999998,-31587.524999999998,-10619.64,-25983.045,-18258.93,-13238.73,-3070.62,4953.96
2042.46,-31569.84,-10646.055,-25987.364999999998,-18264.329999999998,-13245.705,-3078.045,4958.595
2046.78,-31557.69,-10641.42,-25984.079999999998,-18268.469999999998,-13252.814999999999,-3080.25,4962.014999999999
2033.145,-31569.03,-10630.395,-25990.92,-18281.969999999998,-13269.869999999999,-3090.15,4948.5599999999995
2037.2849999999999,-31570.559999999998,-10625.13,-25988.76,-18280.17,-13268.744999999999,-3087.63,4953.195
2040.7949999999998,-31571.414999999997,-10619.414999999999,-25983.45,-18272.925,-13260.644999999999,-3083.67,4958.099999999999
2028.735,-31584.015,-10633.5,-25996.995,-18285.12,-13268.744999999999,-3087.855,4947.21
2036.925,-31572.899999999998,-10626.255,-25992.855,-18280.71,-13266.18,-3086.0099999999998,4954.635
2036.385,-31571.37,-10636.425,-25996.094999999998,-18281.34,-13266.945,-3086.505,4953.735
