ch_0,ch_1,ch_2,ch_3,ch_4,ch_5,ch_6,ch_7
-16735.995,-35869.32,-3872.745,-9841.59,-16704.27,-25589.43,-7485.974999999999,-6588.945
-16740.899999999998,-35875.35,-3893.625,-9858.914999999999,-16726.815,-25614.719999999998,-7505.505,-6591.105
-16756.335,-35888.76,-3931.605,-9892.125,-16756.739999999998,-25619.94,-7483.094999999999,-6598.889999999999
-16765.695,-35876.655,-3934.89,-9886.5,-16740.09,-25583.985,-7498.62,-6609.105
-16770.96,-35855.909999999996,-3908.3399999999997,-9857.835,-16707.78,-25541.64,-7500.33,-6610.005
-16791.614999999998,-35870.76,-3929.1749999999997,-9880.109999999999,-16730.28,-25549.515,-7496.955,-6619.23
-16794.899999999998,-35877.689999999995,-3938.625,-9893.97,-16755.12,-25577.414999999997,-7506.315,-6615.99
-16769.52,-35850.869999999995,-3919.095,-9878.265,-16754.805,-25575.075,-7517.79,-6597.675
-16747.02,-35828.595,-3905.91,-9870.93,-16760.295,-25584.344999999998,-7523.37,-6580.62
-16747.335,-35832.735,-3916.575,-9890.369999999999,-16790.265,-25613.37,-7518.735,-6576.255
-16749.585,-35844.165,-3929.265,-9895.725,-16793.415,-25633.664999999997,-7505.28,-6570.315
-16768.17,-35872.02,-3950.2799999999997,-9898.515,-16775.954999999998,-25605.225,-7500.33,-6575.8949999999995
-16786.395,-35885.025,-3946.995,-9886.455,-16745.715,-25525.844999999998,-7475.535,-6591.6449999999995
-16803.765,-35891.055,-3954.4649999999997,-9887.94,-16735.05,-25480.71,-7501.005,-6613.83
-16800.39,-35883.36,-3953.97,-9897.255,-16760.88,-25514.684999999998,-7506.179999999999,-6609.105
-16784.505,-35883.765,-3946.365,-9894.869999999999,-16775.64,-25539.165,-7494.255,-6583.995
-16778.61,-35882.505,-3935.16,-9887.355,-16761.78,-25497.989999999998,-7518.915,-6579.45
-16788.239999999998,-35896.455,-3941.865,-9888.164999999999,-16755.524999999998,-25461.675,-7506.134999999999,-6584.759999999999
-16782.39,-35896.409999999996,-3964.0049999999997,-9920.205,-16809.165,-25507.754999999997,-7475.535,-6576.705
-16775.325,-35892.81,-3969.27,-9955.664999999999,-16873.515,-25550.774999999998,-7483.1849999999995,-6566.985
-16761.239999999998,-35881.38,-3953.6099999999997,-9934.605,-16845.614999999998,-25508.34,-7548.344999999999,-6560.054999999999
-16764.885,-35885.744999999995,-3959.2799999999997,-9940.455,-16865.505,-25588.395,-7529.085,-6556.95
-16777.755,-35874.63,-3948.705,-9913.455,-16813.665,-25536.645,-7482.15,-6564.735
-16805.43,-35876.564999999995,-3944.3399999999997,-9883.35,-16735.005,-25402.905,-7523.1449999999995,-6591.105
-16812.405,-35862.119999999995,-3948.12,-9915.57,-16785.63,-25450.515,-7525.71,-6595.0199999999995
-16819.02,-35852.985,-3921.8849999999998,-9898.965,-16773.975,-25423.11,-7533.855,-6596.91
-16815.239999999998,-35882.64,-3917.8799999999997,-9882.494999999999,-16756.785,-25407.54,-7527.69,-6574.365
-16820.46,-35908.695,-3941.91,-9897.795,-16769.7,-25418.655,-7540.424999999999,-6568.695
-16847.1,-35942.534999999996,-3973.2749999999996,-9931.005,-16793.55,-25431.12,-7540.0199999999995,-6574.545
-16835.715,-35938.395,-3974.1299999999997,-9921.6,-16784.055,-25421.489999999998,-7558.469999999999,-6565.679999999999
-16815.42,-35893.845,-3953.6549999999997,-9916.92,-16796.114999999998,-25439.129999999997,-7581.24,-6553.349999999999
-16786.62,-35834.895,-3919.9049999999997,-9906.57,-16800.795,-25446.015,-7596.945,-6537.285
-16801.065,-35831.97,-3903.5699999999997,-9882.27,-16767.45,-25410.555,-7605.99,-6540.389999999999
-16825.995,-35860.455,-3931.9649999999997,-9910.755,-16793.19,-25428.78,-7593.84,-6547.23
-16840.079999999998,-35861.58,-3930.0299999999997,-9910.935,-16778.79,-25381.62,-7606.53,-6554.655
-16853.76,-35899.92,-3928.68,-9900.315,-16766.64,-25360.605,-7627.905,-6549.705
-16875.989999999998,-35908.74,-3961.44,-9947.88,-16824.195,-25416.629999999997,-7633.665,-6554.115
-16912.079999999998,-35926.335,-3976.1549999999997,-9969.57,-16848.27,-25441.739999999998,-7616.205,-6558.21
-16935.885,-35980.92,-3982.455,-9950.94,-16817.805,-25397.684999999998,-7610.445,-6547.005
-16908.614999999998,-35958.645,-3984.795,-9935.82,-16808.355,-25394.895,-7613.865,-6518.925
-16915.635,-35959.455,-3980.295,-9921.96,-16791.3,-25374.015,-7603.605,-6515.19
-16949.565,-35994.465,-4020.615,-9965.52,-16839.0,-25404.254999999997,-7593.84,-6526.125
-16949.97,-35963.82,-4009.2749999999996,-9964.35,-16844.13,-25394.489999999998,-7636.455,-6525.585
-16958.52,-35949.42,-3991.545,-9951.795,-16842.96,-25384.454999999998,-7640.594999999999,-6523.65
-16952.805,-35911.845,-3961.7549999999997,-9937.44,-16848.945,-25385.355,-7617.014999999999,-6515.37
-16933.815,-35858.744999999995,-3926.6099999999997,-9916.965,-16837.605,-25380.989999999998,-7623.405,-6496.74
-16938.045,-35824.455,-3904.605,-9895.365,-16794.72,-25315.02,-7625.79,-6490.844999999999
-16984.215,-35839.799999999996,-3920.49,-9917.595,-16805.34,-25309.395,-7645.545,-6516.045
-17016.75,-35851.77,-3914.0099999999998,-9934.605,-16838.55,-25344.629999999997,-7669.17,-6537.15
-17020.98,-35847.405,-3899.43,-9951.975,-16877.79,-25394.309999999998,-7634.5199999999995,-6524.505
-17016.57,-35847.27,-3894.795,-9934.02,-16845.614999999998,-25338.69,-7624.17,-6507.54
-17038.26,-35964.0,-4007.295,-9947.565,-16828.515,-25290.315,-7626.96,-6501.24
-17038.89,-35999.955,-4101.705,-9987.119999999999,-16863.704999999998,-25285.95,-7606.9349999999995,-6491.205
-17044.155,-36000.45,-4058.37,-9997.154999999999,-16895.07,-25306.739999999998,-7670.565,-6502.7699999999995
-17046.899999999998,-35997.345,-4062.1949999999997,-10041.255,-16957.575,-25360.245,-7702.965,-6503.715
-16982.28,-35918.82,-4012.605,-10011.734999999999,-16973.28,-25446.059999999998,-7665.48,-6448.365
-16957.17,-35870.67,-3966.2549999999997,-9952.38,-16920.27,-25407.585,-7653.105,-6436.304999999999
-17011.395,-35909.189999999995,-3980.6549999999997,-9921.42,-16850.385,-25345.665,-7655.085,-6478.605
-17107.02,-36008.82,-4054.995,-9955.215,-16821.675,-25259.309999999998,-7642.889999999999,-6535.259999999999
-17087.94,-35990.64,-4055.805,-9978.48,-16865.37,-25291.53,-7640.594999999999,-6515.099999999999
-17066.79,-35944.47,-4017.375,-9960.164999999999,-16864.515,-25301.969999999998,-7620.884999999999,-6505.469999999999
-17060.445,-35918.595,-3995.865,-9953.64,-16855.065,-25260.48,-7621.65,-6510.0599999999995
-17048.79,-35910.99,-3996.0899999999997,-9961.74,-16864.695,-25268.04,-7638.929999999999,-6503.264999999999
-17067.825,-35922.015,-4025.52,-9977.58,-16870.86,-25282.53,-7643.429999999999,-6516.675
-17086.5,-35927.955,-4030.02,-9980.19,-16857.045,-25257.195,-7647.57,-6538.23
-17116.38,-35971.65,-4065.075,-10018.484999999999,-16884.405,-25274.204999999998,-7656.48,-6556.365
-17093.204999999998,-35956.439999999995,-4035.915,-9994.23,-16878.735,-25290.315,-7684.29,-6539.8949999999995
-17071.739999999998,-35950.77,-3999.42,-9958.455,-16852.41,-25251.12,-7741.44,-6524.865
-17088.885,-35978.22,-4015.935,-9992.699999999999,-16889.445,-25248.735,-7701.4349999999995,-6518.745
-17092.485,-36027.54,-4037.49,-10001.34,-16899.345,-25257.285,-7718.804999999999,-6510.465
-17066.25,-35996.13,-4047.165,-9983.52,-16876.53,-25252.379999999997,-7739.415,-6496.514999999999
-17035.515,-35905.814999999995,-3978.1349999999998,-9946.484999999999,-16857.989999999998,-25254.405,-7740.405,-6482.745
-17054.37,-35866.125,-3976.1549999999997,-9977.355,-16887.78,-25262.01,-7718.445,-6498.405
-17112.78,-35874.99,-4011.93,-10015.695,-16895.655,-25219.53,-7738.245,-6538.7699999999995
-17122.68,-35836.38,-3978.72,-9998.234999999999,-16888.95,-25219.62,-7754.67,-6536.16
-17138.34,-35894.835,-3945.4649999999997,-9959.58,-16863.57,-25203.149999999998,-7751.025,-6513.929999999999
-17142.345,-35958.465,-3965.895,-9958.185,-16849.89,-25164.719999999998,-7757.1449999999995,-6488.865
-17165.204999999998,-35991.045,-3985.9649999999997,-9972.404999999999,-16862.67,-25166.16,-7743.87,-6487.335
-17216.774999999998,-36047.97,-4031.0099999999998,-10016.19,-16910.325,-25204.815,-7743.69,-6506.054999999999
-17223.434999999998,-36056.97,-4046.085,-10025.19,-16925.579999999998,-25220.745,-7750.98,-6495.705
-17164.125,-35950.005,-3971.79,-9971.82,-16881.48,-25180.245,-7789.545,-6440.49
-17206.38,-35968.229999999996,-3979.7999999999997,-9978.84,-16855.739999999998,-25071.075,-7782.705,-6446.655
-17227.44,-35985.465,-4028.94,-10021.365,-16922.565,-25142.219999999998,-7793.639999999999,-6444.585
-17218.305,-35960.939999999995,-4016.115,-10008.27,-16964.864999999998,-25315.469999999998,-7735.005,-6420.375
-17275.68,-35990.82,-4034.565,-10007.64,-16927.065,-25262.594999999998,-7717.59,-6452.505
-17313.03,-36003.735,-4032.99,-9981.18,-16857.63,-25133.219999999998,-7783.0199999999995,-6484.32
-17308.53,-35991.135,-4025.25,-9977.805,-16853.265,-25112.879999999997,-7788.42,-6468.21
-17293.68,-35963.46,-4015.665,-9994.725,-16889.67,-25175.52,-7782.255,-6447.87
-17277.3,-35929.08,-3987.0899999999997,-9989.279999999999,-16901.505,-25195.725,-7786.799999999999,-6430.005
-17274.059999999998,-35951.445,-4013.5049999999997,-10013.31,-16931.25,-25192.934999999998,-7702.785,-6398.6849999999995
-17330.805,-36012.555,-4068.54,-10066.994999999999,-16980.704999999998,-25189.02,-7708.59,-6445.53
-17346.015,-36051.57,-4091.1299999999997,-10108.305,-17036.01,-25170.524999999998,-7713.2699999999995,-6446.429999999999
-17291.52,-36027.765,-4073.4449999999997,-10098.585,-17038.215,-25129.079999999998,-7705.3949999999995,-6395.67
-17290.71,-36011.385,-4064.3999999999996,-10078.244999999999,-17026.02,-25189.739999999998,-7685.19,-6394.05
-17291.43,-35955.314999999995,-4016.205,-10018.8,-16941.105,-25188.704999999998,-7721.009999999999,-6408.045
-17296.38,-35922.825,-3990.7799999999997,-9969.705,-16868.565,-25135.469999999998,-7773.344999999999,-6425.82
-17306.235,-35908.515,-3996.855,-9993.15,-16869.465,-25129.215,-7761.915,-6435.63
-17319.555,-35922.555,-4013.5499999999997,-10010.565,-16888.725,-25108.155,-7755.4349999999995,-6430.815
-17325.899999999998,-35971.65,-4047.12,-9989.505,-16871.265,-25081.2,-7754.085,-6411.915
-17326.079999999998,-36032.58,-4097.88,-10024.92,-16930.8,-25106.985,-7738.83,-6391.08
-17324.64,-36001.619999999995,-4040.865,-10041.164999999999,-16971.21,-25110.315,-7720.65,-6387.03
-17347.23,-36074.835,-4092.345,-10072.305,-16970.489999999998,-25097.445,-7697.969999999999,-6387.12
-17262.72,-36025.064999999995,-3999.4649999999997,-9974.25,-16887.42,-25103.79,-7779.105,-6330.33
-17257.95,-35990.28,-4008.87,-9975.015,-16894.079999999998,-25117.965,-7724.61,-6319.62
-17317.665,-35927.189999999995,-4066.47,-10033.965,-16931.52,-25105.454999999998,-7723.3949999999995,-6386.625
-17315.01,-35854.02,-4032.54,-10028.025,-16933.905,-25108.559999999998,-7765.065,-6389.639999999999
-17361.36,-35914.86,-4032.9449999999997,-10024.92,-16923.78,-25063.829999999998,-7761.014999999999,-6391.17
-17417.52,-36112.725,-4054.68,-10024.515,-16912.934999999998,-25013.34,-7746.615,-6373.98
-17424.855,-36237.645,-4082.58,-10037.385,-16933.5,-25031.7,-7731.945,-6352.5599999999995
-17348.805,-36162.45,-4138.875,-10073.205,-16987.995,-25142.489999999998,-7736.49,-6325.155
-17340.434999999998,-36084.375,-4123.305,-10064.07,-16970.489999999998,-25098.614999999998,-7764.84,-6339.735
-17367.21,-36087.659999999996,-4111.155,-10066.455,-16986.105,-25067.07,-7763.985,-6348.014999999999
-17338.905,-36051.479999999996,-4075.92,-10038.375,-16983.72,-25087.95,-7764.57,-6324.525
-17317.44,-36005.4,-4039.4249999999997,-10013.85,-16957.079999999998,-25083.45,-7783.785,-6314.804999999999
-17329.32,-35993.43,-4036.8599999999997,-10031.895,-16963.065,-25068.78,-7779.285,-6322.679999999999
-17368.605,-36030.195,-4071.06,-10073.43,-17008.739999999998,-25075.665,-7734.42,-6340.365
-17360.64,-36007.29,-4047.345,-10057.14,-17021.52,-25141.77,-7737.84,-6330.33
-17365.77,-36017.955,-4024.2149999999997,-10013.355,-16941.87,-25038.855,-7738.245,-6328.71
-17401.32,-36101.115,-4117.275,-10053.315,-16943.175,-24975.09,-7754.985,-6346.304999999999
-17381.114999999998,-36066.42,-4118.58,-10065.42,-16977.105,-25006.364999999998,-7802.73,-6338.25
-17340.84,-36019.619999999995,-4074.075,-10070.82,-17029.44,-25097.085,-7759.17,-6288.615
-17353.35,-36056.924999999996,-4081.815,-10079.865,-17042.489999999998,-25076.925,-7730.865,-6283.9349999999995
-17393.04,-36100.485,-4122.36,-10125.855,-17089.335,-25076.07,-7732.665,-6314.804999999999
-17413.02,-36110.564999999995,-4160.61,-10152.449999999999,-17120.565,-25063.515,-7744.049999999999,-6341.445
-17366.715,-36026.955,-4100.715,-10087.65,-17071.38,-25049.34,-7790.8949999999995,-6318.8099999999995
-17356.59,-35992.53,-4074.165,-10066.949999999999,-17035.829999999998,-25083.765,-7729.74,-6292.98
-17391.015,-36009.18,-4071.69,-10046.88,-16973.1,-25025.085,-7735.1849999999995,-6306.66
-17395.965,-36043.29,-4065.975,-10025.685,-16953.075,-24989.355,-7740.36,-6298.605
-17431.065,-36151.29,-4126.59,-10065.69,-17007.93,-25003.215,-7700.355,-6309.0
-17380.575,-36039.24,-4099.1849999999995,-10084.095,-17045.055,-25028.55,-7792.469999999999,-6302.16
-17360.415,-35951.13,-4061.0699999999997,-10071.81,-17040.105,-25074.945,-7776.09,-6281.55
-17384.579999999998,-35903.475,-4017.1949999999997,-10032.84,-16978.454999999998,-25029.765,-7756.469999999999,-6301.98
-17442.855,-35951.534999999996,-4030.29,-10051.695,-16972.11,-24944.489999999998,-7727.13,-6332.445
-17443.215,-36051.479999999996,-4034.97,-10041.75,-16983.63,-24957.09,-7699.094999999999,-6302.7
-17419.725,-36076.86,-4079.0699999999997,-10025.64,-16967.52,-24929.325,-7673.58,-6272.1449999999995
-17401.635,-36030.6,-4106.474999999999,-10022.31,-16963.425,-24924.96,-7697.295,-6265.304999999999
-17430.84,-36115.424999999996,-4111.514999999999,-10063.755,-17017.47,-24968.43,-7725.78,-6267.825
-17442.72,-36199.71,-4101.48,-10094.805,-17048.295,-24975.315,-7764.57,-6258.78
-17396.055,-36171.585,-4095.6299999999997,-10078.83,-17032.364999999998,-24901.559999999998,-7793.235,-6237.719999999999
-17335.665,-36081.18,-4096.62,-10047.015,-17055.989999999998,-24914.024999999998,-7842.78,-6214.139999999999
-17325.27,-36044.955,-4102.65,-10061.595,-17097.03,-25128.765,-7749.63,-6179.849999999999
-17430.66,-36160.2,-4204.889999999999,-10124.279999999999,-17061.48,-25065.629999999997,-7666.5599999999995,-6228.09
-17427.735,-36120.42,-4159.305,-10083.69,-17024.715,-24961.815,-7713.405,-6251.67
-17421.704999999998,-36066.375,-4119.57,-10053.945,-17016.3,-24960.87,-7732.53,-6265.485
-17424.315,-36007.38,-4117.59,-10063.305,-17018.415,-24961.815,-7757.054999999999,-6295.455
-17444.295,-35965.215,-4121.28,-10086.84,-17043.795,-24947.954999999998,-7776.495,-6340.41
-17475.885,-35985.96,-4125.78,-10118.07,-17097.57,-24940.395,-7749.764999999999,-6338.429999999999
-17479.98,-36065.43,-4102.29,-10117.215,-17124.75,-24929.1,-7775.28,-6304.005
-17479.89,-36210.015,-4129.245,-10120.365,-17130.51,-24927.885,-7747.29,-6253.065
-17459.64,-36261.585,-4171.815,-10106.64,-17119.53,-24993.36,-7637.3099999999995,-6238.889999999999
