ch_0,ch_1,ch_2,ch_3,ch_4,ch_5,ch_6,ch_7
13037.22,-17885.07,-26412.344999999998,7570.215,-26955.135,-28875.51,-21045.78,-31161.42
13043.16,-17886.96,-26421.795,7564.455,-26957.295,-28877.445,-21045.195,-31157.684999999998
13035.24,-17892.27,-26429.265,7563.509999999999,-26957.789999999997,-28877.355,-21048.344999999998,-31164.84
13033.394999999999,-17889.075,-26429.625,7571.7,-26953.065,-28875.555,-21053.565,-31170.555
13039.019999999999,-17882.235,-26435.7,7580.429999999999,-26944.785,-28868.805,-21049.02,-31164.975
13035.6,-17885.114999999998,-26454.329999999998,7576.965,-26948.475,-28875.329999999998,-21052.53,-31169.565
13033.89,-17884.035,-26470.17,7577.054999999999,-26949.555,-28875.42,-21053.295,-31169.295
13034.295,-17885.745,-26491.454999999998,7574.67,-26951.579999999998,-28877.489999999998,-21051.54,-31164.614999999998
13038.074999999999,-17881.92,-26504.37,7579.259999999999,-26947.305,-28874.925,-21048.66,-31160.07
13034.115,-17887.545,-26529.21,7572.96,-26952.48,-28882.664999999997,-21054.285,-31163.805
13036.23,-17884.71,-26542.844999999998,7576.695,-26947.395,-28878.795,-21053.835,-31160.789999999997
13034.609999999999,-17882.594999999998,-26559.045,7580.25,-26944.245,-28876.5,-21054.6,-31169.34
13039.74,-17874.315,-26567.864999999998,7590.825,-26934.795,-28866.69,-21050.37,-31168.485
13042.935,-17878.68,-26590.14,7583.085,-26941.004999999997,-28871.325,-21051.315,-31166.64
13040.01,-17884.305,-26607.645,7577.325,-26946.315,-28876.77,-21058.515,-31171.59
13044.824999999999,-17881.739999999998,-26615.43,7579.755,-26941.995,-28875.105,-21056.085,-31166.504999999997
13043.564999999999,-17881.695,-26623.53,7579.799999999999,-26941.95,-28875.645,-21056.265,-31167.045
13034.07,-17884.26,-26630.64,7577.6849999999995,-26945.235,-28880.46,-21059.01,-31172.985
13034.07,-17883.855,-26633.43,7581.69,-26941.454999999998,-28876.725,-21055.23,-31169.565
13026.555,-17895.059999999998,-26649.135,7573.41,-26947.8,-28882.395,-21060.765,-31176.27
13029.48,-17891.684999999998,-26651.43,7575.21,-26945.82,-28882.125,-21060.855,-31172.85
13035.51,-17885.969999999998,-26646.75,7580.025,-26943.48,-28878.975,-21056.895,-31167.045
13032.63,-17894.295,-26654.265,7573.455,-26949.69,-28881.045,-21057.93,-31170.42
13027.32,-17902.395,-26659.89,7567.965,-26956.53,-28886.399999999998,-21062.655,-31176.855
13033.394999999999,-17894.34,-26649.719999999998,7576.5599999999995,-26950.274999999998,-28881.09,-21060.045,-31172.895
13029.074999999999,-17896.364999999998,-26650.98,7573.995,-26953.065,-28885.77,-21065.579999999998,-31177.754999999997
13024.98,-17899.649999999998,-26651.114999999998,7575.12,-26950.364999999998,-28881.899999999998,-21063.465,-31178.07
13023.585,-17898.57,-26649.135,7577.1449999999995,-26947.53,-28879.829999999998,-21061.44,-31176.495
13028.4,-17894.16,-26644.77,7580.745,-26944.2,-28877.94,-21057.614999999998,-31172.219999999998
13026.06,-17902.71,-26651.114999999998,7573.32,-26949.195,-28884.329999999998,-21061.665,-31176.27
13031.234999999999,-17901.899999999998,-26647.469999999998,7574.804999999999,-26945.82,-28881.989999999998,-21056.94,-31171.094999999998
13034.115,-17901.36,-26644.905,7574.174999999999,-26947.844999999998,-28885.14,-21058.875,-31171.364999999998
13032.135,-17907.84,-26649.855,7567.155,-26953.605,-28891.125,-21066.704999999998,-31175.504999999997
13028.31,-17908.515,-26644.905,7566.705,-26954.235,-28893.149999999998,-21070.89,-31177.754999999997
13031.414999999999,-17901.045,-26631.405,7575.4349999999995,-26945.82,-28888.515,-21069.675,-31176.0
13033.935,-17898.57,-26623.44,7580.5199999999995,-26939.43,-28883.114999999998,-21067.155,-31174.92
13031.55,-17901.045,-26615.52,7587.719999999999,-26932.23,-28875.735,-21061.62,-31172.67
13019.13,-17918.145,-26625.645,7577.955,-26939.204999999998,-28880.73,-21059.82,-31173.21
13002.48,-17934.03,-26634.195,7568.235,-26945.145,-28884.6,-21059.82,-31176.585
12992.31,-17949.465,-26641.53,7559.1449999999995,-26950.23,-28885.77,-21063.195,-31183.515
12998.115,-17957.835,-26647.2,7551.45,-26955.989999999998,-28884.465,-21062.969999999998,-31182.93
13011.21,-17947.89,-26638.739999999998,7555.724999999999,-26950.454999999998,-28876.364999999998,-21063.555,-31180.004999999997
13012.47,-17935.785,-26622.989999999998,7565.355,-26945.774999999998,-28879.11,-21063.015,-31182.074999999997
13019.22,-17920.17,-26605.71,7573.86,-26950.094999999998,-28896.21,-21072.329999999998,-31185.675
13015.17,-17915.94,-26592.48,7584.48,-26945.37,-28893.42,-21071.07,-31186.754999999997
13005.0,-17931.6,-26595.315,7581.285,-26945.684999999998,-28890.18,-21067.02,-31187.204999999998
13002.029999999999,-17942.265,-26599.454999999998,7573.005,-26950.995,-28891.305,-21064.454999999998,-31185.225
13016.34,-17933.265,-26592.57,7571.745,-26955.765,-28895.895,-21066.84,-31175.864999999998
13031.369999999999,-17912.565,-26569.89,7592.94,-26941.905,-28892.114999999998,-21069.18,-31168.485
13021.47,-17914.995,-26568.585,7598.295,-26940.195,-28897.785,-21075.48,-31178.61
13008.914999999999,-17927.28,-26569.62,7605.945,-26934.03,-28890.585,-21068.954999999998,-31180.635
12984.93,-17962.155,-26593.875,7588.17,-26941.95,-28877.355,-21054.239999999998,-31180.545
12968.55,-17994.42,-26632.079999999998,7549.155,-26958.329999999998,-28879.065,-21056.355,-31188.645
12979.71,-18001.305,-26638.469999999998,7541.37,-26957.835,-28876.364999999998,-21059.82,-31187.655
13002.164999999999,-17974.844999999998,-26619.75,7556.04,-26954.73,-28881.629999999997,-21069.63,-31184.864999999998
13018.859999999999,-17942.13,-26585.28,7585.785,-26942.129999999997,-28891.305,-21077.684999999998,-31174.875
13011.255,-17931.42,-26570.295,7596.45,-26937.719999999998,-28893.6,-21076.605,-31174.605
13013.64,-17922.059999999998,-26563.815,7593.525,-26940.87,-28890.899999999998,-21074.715,-31173.704999999998
13036.635,-17895.375,-26534.879999999997,7612.605,-26934.66,-28895.579999999998,-21079.17,-31168.44
13052.519999999999,-17888.219999999998,-26526.87,7617.014999999999,-26931.735,-28897.92,-21083.219999999998,-31163.625
13039.199999999999,-17907.39,-26534.969999999998,7610.58,-26935.469999999998,-28894.23,-21074.715,-31160.925
13019.445,-17941.364999999998,-26560.215,7593.615,-26941.905,-28894.274999999998,-21076.245,-31167.539999999997
13011.66,-17951.04,-26567.46,7584.57,-26945.414999999997,-28894.815,-21076.29,-31172.219999999998
13019.894999999999,-17941.59,-26557.92,7590.42,-26940.239999999998,-28893.645,-21074.76,-31168.754999999997
13034.115,-17929.665,-26543.789999999997,7602.66,-26935.155,-28898.145,-21078.45,-31167.719999999998
13021.65,-17934.344999999998,-26538.614999999998,7603.11,-26941.68,-28907.235,-21084.524999999998,-31175.954999999998
13016.609999999999,-17947.17,-26548.829999999998,7596.0,-26944.469999999998,-28904.219999999998,-21078.18,-31170.69
12996.81,-17972.505,-26571.645,7581.42,-26950.59,-28906.605,-21077.684999999998,-31174.02
12984.3,-17990.82,-26595.855,7570.349999999999,-26950.59,-28903.05,-21071.43,-31173.84
12984.75,-18002.655,-26611.2,7551.09,-26955.45,-28905.3,-21074.94,-31177.89
13007.88,-17976.825,-26585.954999999998,7575.84,-26943.975,-28910.16,-21084.795,-31173.66
13017.24,-17958.329999999998,-26582.039999999997,7590.509999999999,-26940.105,-28913.67,-21090.239999999998,-31174.289999999997
13014.675,-17951.219999999998,-26580.78,7593.705,-26936.325,-28910.835,-21089.204999999998,-31175.504999999997
13013.82,-17941.14,-26565.795,7589.745,-26941.004999999997,-28915.829999999998,-21092.085,-31176.945
13005.72,-17951.94,-26567.414999999997,7582.005,-26948.43,-28921.77,-21096.135,-31180.59
13003.83,-17957.7,-26565.254999999997,7584.344999999999,-26946.539999999997,-28919.07,-21093.3,-31177.664999999997
13004.82,-17959.995,-26567.864999999998,7585.65,-26945.1,-28915.695,-21087.45,-31172.129999999997
12995.055,-17981.28,-26587.8,7574.49,-26952.254999999997,-28917.765,-21087.135,-31174.515
12989.115,-18002.114999999998,-26601.75,7572.105,-26949.555,-28912.86,-21083.085,-31172.715
12977.46,-18026.46,-26629.379999999997,7559.6849999999995,-26958.465,-28918.53,-21088.62,-31178.925
12968.505,-18045.719999999998,-26653.77,7555.86,-26959.23,-28920.195,-21090.78,-31182.48
12967.244999999999,-18041.309999999998,-26649.405,7565.219999999999,-26957.34,-28923.075,-21095.28,-31186.215
12976.695,-18012.825,-26630.594999999998,7576.74,-26956.62,-28925.82,-21096.809999999998,-31184.64
12971.564999999999,-17999.19,-26630.414999999997,7577.19,-26964.855,-28938.375,-21107.475,-31194.719999999998
12976.244999999999,-17988.03,-26631.27,7591.32,-26952.344999999998,-28930.995,-21105.405,-31193.235
12992.535,-17947.755,-26621.504999999997,7574.625,-26952.48,-28937.52,-21109.545,-31193.73
13005.135,-17930.88,-26592.39,7564.32,-26949.015,-28940.94,-21114.765,-31189.949999999997
12999.015,-17944.515,-26586.945,7588.035,-26934.704999999998,-28932.614999999998,-21106.8,-31183.065
12991.14,-17959.274999999998,-26601.93,7582.5,-26939.295,-28933.695,-21106.305,-31182.254999999997
12973.545,-17984.43,-26624.07,7565.58,-26953.469999999998,-28944.809999999998,-21115.98,-31197.465
12970.305,-17987.535,-26627.219999999998,7566.929999999999,-26952.164999999997,-28943.19,-21117.059999999998,-31208.265
12974.22,-17984.969999999998,-26624.745,7569.8099999999995,-26949.87,-28941.66,-21118.995,-31206.645
12974.31,-17987.355,-26627.445,7570.889999999999,-26948.61,-28939.95,-21120.39,-31203.989999999998
12971.43,-17995.545,-26633.52,7567.965,-26950.32,-28939.905,-21122.055,-31198.364999999998
12971.88,-18007.245,-26644.545,7559.639999999999,-26955.36,-28942.875,-21119.04,-31183.965
12961.8,-18021.285,-26659.395,7544.835,-26968.41,-28952.055,-21126.42,-31192.875
12958.38,-18017.145,-26654.94,7548.299999999999,-26965.485,-28951.065,-21128.085,-31198.274999999998
12956.67,-18011.385,-26646.48,7558.424999999999,-26958.285,-28950.434999999998,-21126.239999999998,-31198.545
12952.529999999999,-18010.395,-26642.52,7566.795,-26951.489999999998,-28949.489999999998,-21126.375,-31200.39
12947.58,-18018.809999999998,-26651.52,7560.045,-26957.204999999998,-28957.23,-21135.915,-31205.16
12946.32,-18027.765,-26659.53,7554.0599999999995,-26962.245,-28954.754999999997,-21128.265,-31197.555
12930.255,-18049.364999999998,-26678.204999999998,7538.58,-26975.024999999998,-28958.445,-21126.96,-31201.605
12927.779999999999,-18049.364999999998,-26676.719999999998,7541.19,-26972.864999999998,-28961.864999999998,-21139.38,-31214.565
12924.18,-18059.715,-26680.77,7541.505,-26968.32,-28959.57,-21144.239999999998,-31218.48
12897.494999999999,-18099.405,-26708.85,7514.505,-26988.704999999998,-28964.07,-21135.105,-31215.824999999997
12866.894999999999,-18145.17,-26741.25,7490.295,-27007.065,-28961.64,-21126.645,-31218.93
12830.58,-18174.375,-26761.364999999998,7476.255,-27014.399999999998,-28959.344999999998,-21130.965,-31242.824999999997
12868.199999999999,-18132.704999999998,-26730.855,7497.224999999999,-27002.745,-28967.355,-21143.295,-31235.76
12950.144999999999,-18044.37,-26672.67,7541.009999999999,-26977.635,-28984.77,-21164.67,-31210.965
12974.085,-17991.495,-26628.254999999997,7576.5599999999995,-26958.329999999998,-28990.754999999997,-21171.6,-31206.195
12979.26,-17971.38,-26611.695,7586.549999999999,-26952.93,-28994.715,-21176.37,-31210.695
12978.135,-17977.005,-26618.94,7582.23,-26952.84,-28990.125,-21174.48,-31207.68
12968.1,-17984.61,-26623.98,7586.91,-26943.164999999997,-28974.329999999998,-21170.34,-31209.524999999998
12961.305,-17996.399999999998,-26623.934999999998,7585.695,-26942.039999999997,-28967.579999999998,-21164.489999999998,-31207.364999999998
12951.81,-18013.815,-26635.32,7574.085,-26951.715,-28973.385,-21168.63,-31210.785
12942.045,-18036.225,-26644.59,7568.054999999999,-26954.684999999998,-28974.105,-21169.934999999998,-31213.664999999997
12932.144999999999,-18055.53,-26657.19,7556.219999999999,-26963.91,-28978.379999999997,-21168.855,-31214.024999999998
12904.695,-18089.64,-26684.504999999997,7531.424999999999,-26981.37,-28981.035,-21160.575,-31214.475
12865.365,-18129.015,-26715.914999999997,7504.155,-26998.965,-28982.879999999997,-21154.77,-31221.405
12836.744999999999,-18160.335,-26740.754999999997,7481.205,-27013.815,-28990.89,-21166.425,-31239.989999999998
12852.359999999999,-18137.16,-26721.719999999998,7497.764999999999,-26996.309999999998,-28983.42,-21177.765,-31245.3
12900.06,-18082.934999999998,-26684.28,7524.8099999999995,-26976.87,-28980.945,-21183.255,-31235.715
12931.109999999999,-18034.649999999998,-26640.989999999998,7552.755,-26968.454999999998,-28986.434999999998,-21193.245,-31227.795
12938.984999999999,-18014.489999999998,-26619.3,7571.474999999999,-26963.145,-28994.895,-21204.54,-31227.164999999997
12948.435,-18003.87,-26609.265,7584.344999999999,-26951.175,-28991.61,-21206.34,-31224.015
12944.564999999999,-18012.87,-26618.129999999997,7578.179999999999,-26952.03,-28991.52,-21204.045,-31222.71
12939.975,-18019.98,-26623.754999999997,7574.355,-26954.73,-28994.625,-21201.39,-31219.785
12939.705,-18018.27,-26622.989999999998,7576.83,-26951.715,-28991.475,-21196.305,-31213.395
12923.46,-18038.655,-26640.27,7565.8949999999995,-26958.375,-28992.239999999998,-21197.34,-31218.75
12908.025,-18058.59,-26657.864999999998,7551.405,-26971.739999999998,-28999.934999999998,-21206.43,-31228.379999999997
12910.23,-18062.73,-26661.87,7550.054999999999,-26973.135,-28998.719999999998,-21205.844999999998,-31223.475
12903.074999999999,-18071.28,-26673.84,7542.585,-26979.075,-29002.905,-21213.945,-31230.045
12900.734999999999,-18074.295,-26685.945,7537.32,-26983.844999999998,-29007.315,-21223.44,-31236.704999999998
12900.96,-18072.405,-26691.254999999997,7545.599999999999,-26974.844999999998,-29001.465,-21227.535,-31240.485
12897.539999999999,-18077.355,-26705.565,7540.424999999999,-26979.795,-29004.704999999998,-21227.805,-31240.35
12893.265,-18079.155,-26714.655,7541.505,-26979.344999999998,-29006.01,-21229.02,-31241.43
12893.805,-18078.255,-26719.155,7550.505,-26967.6,-29001.87,-21226.454999999998,-31234.004999999997
12895.47,-18075.465,-26726.265,7552.08,-26964.989999999998,-29003.355,-21223.215,-31228.965
12891.555,-18080.55,-26738.055,7546.1849999999995,-26967.914999999997,-29008.71,-21224.114999999998,-31230.855
12880.26,-18092.745,-26752.995,7537.275,-26974.17,-29015.504999999997,-21233.024999999998,-31240.395
12878.73,-18094.815,-26756.774999999998,7537.1849999999995,-26973.27,-29015.594999999998,-21236.445,-31241.835
12879.945,-18095.175,-26757.719999999998,7537.815,-26971.469999999998,-29012.94,-21238.829999999998,-31242.195
12879.045,-18096.48,-26755.425,7540.92,-26968.14,-29009.43,-21239.91,-31246.829999999998
12878.73,-18095.085,-26752.364999999998,7547.085,-26963.01,-29003.895,-21239.145,-31254.75
12882.6,-18092.475,-26749.754999999997,7551.719999999999,-26959.05,-29000.024999999998,-21237.3,-31250.52
12878.73,-18099.945,-26757.539999999997,7545.285,-26964.315,-29003.085,-21241.665,-31247.82
12874.859999999999,-18109.215,-26766.18,7536.825,-26972.504999999997,-29010.105,-21245.85,-31242.149999999998
12869.144999999999,-18120.015,-26777.25,7526.07,-26982.719999999998,-29021.355,-21244.95,-31233.105
12857.13,-18132.165,-26787.105,7516.71,-26990.325,-29026.17,-21244.32,-31240.17
12841.605,-18148.454999999998,-26800.559999999998,7503.615,-27000.989999999998,-29035.98,-21252.555,-31251.329999999998
