ch_0,ch_1,ch_2,ch_3,ch_4,ch_5,ch_6,ch_7
-25696.44,-28077.66,13072.32,10684.935,-17795.745,-19084.454999999998,18715.094999999998,-12863.16
-24685.92,-27012.285,13276.845,10440.675,-18494.954999999998,-20514.059999999998,17888.085,-12053.475
-24154.02,-26475.704999999998,13468.185,10348.785,-18949.14,-21495.105,17134.785,-11534.22
-24394.59,-26750.745,13490.73,10438.605,-18875.79,-21257.55,16956.585,-11663.505
-24696.18,-27072.945,13449.869999999999,10523.835,-18633.149999999998,-20595.78,16988.399999999998,-11905.785
-25212.87,-27620.594999999998,13332.96,10609.605,-18298.079999999998,-19653.84,17262.899999999998,-12326.265
-26311.635,-28783.754999999997,13069.619999999999,10860.57,-17540.864999999998,-17647.335,18217.71,-13240.98
-26999.82,-29493.719999999998,12808.215,10992.779999999999,-17009.055,-15969.105,19134.765,-13904.505
-26977.004999999997,-29457.495,12675.465,10944.945,-16961.67,-15383.609999999999,19503.27,-13977.765
-26832.87,-29308.905,12603.555,10839.779999999999,-17112.96,-15210.855,19608.93,-13900.769999999999
-26464.23,-28922.129999999997,12614.67,10692.81,-17389.395,-15472.26,19451.61,-13634.369999999999
-25391.61,-27792.09,12828.465,10421.73,-18172.62,-16962.21,18580.545,-12762.72
-24813.225,-27210.465,13034.205,10333.17,-18729.54,-18045.0,17789.715,-12193.965
-25013.835,-27448.515,13052.835,10459.26,-18697.14,-17881.739999999998,17587.845,-12282.48
-25300.754999999997,-27757.215,12974.4,10591.605,-18552.645,-17281.98,17619.57,-12505.32
-25798.905,-28287.405,12810.869999999999,10735.47,-18253.53,-16304.805,17870.445,-12906.539999999999
-26977.364999999998,-29534.489999999998,12479.085,11035.71,-17409.915,-14107.545,18820.665,-13886.369999999999
-27753.434999999998,-30335.309999999998,12114.855,11183.805,-16776.855,-12269.34,19780.649999999998,-14631.029999999999
-27771.075,-30334.949999999997,11872.215,11132.685,-16678.44,-11639.699999999999,20211.39,-14742.135
-27575.684999999998,-30122.864999999998,11745.135,11048.265,-16792.649999999998,-11504.34,20325.78,-14618.699999999999
-27194.129999999997,-29713.545,11704.05,10904.895,-17036.37,-11808.72,20194.605,-14336.64
-26061.254999999997,-28514.114999999998,11870.324999999999,10589.625,-17817.344999999998,-13376.654999999999,19369.079999999998,-13416.57
-25446.69,-27892.754999999997,12046.635,10448.1,-18345.105,-14476.05,18599.67,-12818.43
-25668.539999999997,-28152.539999999997,12073.635,10560.555,-18222.3,-14305.455,18397.71,-12925.845
-26031.69,-28543.995,12021.255,10689.345,-17944.38,-13708.394999999999,18442.53,-13215.105
-26634.239999999998,-29181.42,11893.455,10827.81,-17503.515,-12730.904999999999,18703.71,-13707.72
-27935.46,-30552.254999999997,11585.88,11154.779999999999,-16478.64,-10402.289999999999,19617.75,-14796.585
-28784.34,-31425.84,11240.955,11306.88,-15644.115,-8423.279999999999,20529.225,-15615.63
-28841.085,-31466.295,11028.195,11222.145,-15390.945,-7818.615,20950.38,-15774.48
-28616.129999999997,-31225.725,10927.619999999999,11106.585,-15319.89,-7739.73,21040.559999999998,-15640.289999999999
-28216.35,-30800.925,10874.97,10941.525,-15330.734999999999,-8173.17,20911.905,-15343.244999999999
-27107.73,-29632.545,11010.195,10550.295,-15849.675,-9924.75,20128.68,-14444.865
-26497.485,-29016.855,11178.72,10321.965,-16117.785,-11321.865,19383.524999999998,-13855.14
-26726.085,-29282.535,11190.6,10360.484999999999,-15771.689999999999,-11327.535,19183.454999999998,-13969.529999999999
-27062.954999999998,-29653.739999999998,11118.375,10429.785,-15242.265,-10822.5,19186.739999999998,-14242.095
-27644.085,-30286.574999999997,10957.814999999999,10538.685,-14618.744999999999,-9849.914999999999,19403.954999999998,-14722.92
-28972.485,-31696.785,10620.359999999999,10872.0,-13428.045,-7658.1449999999995,20306.52,-15844.635
-29862.405,-32615.28,10225.26,11046.42,-12349.035,-5806.53,21199.184999999998,-16706.024999999998
-29973.105,-32706.449999999997,9931.23,10924.154999999999,-11916.494999999999,-5062.139999999999,21597.57,-16918.155
-29794.68,-32503.635,9772.47,10710.855,-11816.414999999999,-4796.1449999999995,21706.515,-16834.815
-29373.885,-32046.164999999997,9707.31,10445.76,-11875.545,-5009.445,21597.12,-16534.395
-28132.515,-30731.85,9827.19,9906.93,-12618.045,-6524.19,20801.565,-15522.435
-27398.43,-29983.59,9978.3,9560.205,-13100.85,-7661.88,20053.53,-14816.654999999999
-27572.219999999998,-30191.67,10015.785,9552.06,-12897.945,-7558.875,19878.975,-14881.095
-27844.379999999997,-30482.055,9989.369999999999,9624.105,-12529.395,-7119.2699999999995,19904.265,-15089.31
-28404.945,-31069.035,9868.41,9754.199999999999,-12030.93,-6344.73,20153.565,-15532.064999999999
-29811.465,-32559.704999999998,9554.85,10207.89,-10868.939999999999,-4246.38,21057.704999999998,-16691.715
-30804.66,-33590.655,9154.26,10527.435,-9930.15,-2536.4249999999997,21995.55,-17635.77
-30841.695,-33588.54,8912.835,10517.085,-9679.545,-2096.055,22420.665,-17795.88
-30564.315,-33280.47,8797.545,10439.55,-9647.55,-2189.34,22540.635,-17622.045
-30078.27,-32758.155,8742.555,10291.185,-9875.115,-2686.9049999999997,22430.204999999998,-17256.825
-28704.735,-31302.27,8901.359999999999,9716.895,-10871.145,-4518.09,21642.524999999998,-16133.13
-27856.62,-30438.675,9148.41,9319.545,-11528.369999999999,-5908.455,20869.92,-15319.17
-28042.335,-30662.504999999997,9213.21,9441.045,-11409.795,-5884.695,20645.145,-15384.465
-28420.065,-31066.335,9122.805,9685.305,-11145.869999999999,-5408.1449999999995,20673.675,-15694.605
-29079.809999999998,-31764.69,8930.385,10063.935,-10680.39,-4592.34,20933.01,-16259.894999999999
-30621.239999999998,-33391.979999999996,8567.369999999999,10965.015,-9562.32,-2543.04,21829.274999999998,-17580.42
-31759.739999999998,-34559.865,8118.99,11726.865,-8597.699999999999,-800.235,22734.629999999997,-18684.63
-31911.39,-34681.68,7810.335,11994.029999999999,-8209.485,-320.13,23127.12,-18961.425
-31779.405,-34521.479999999996,7617.509999999999,12036.689999999999,-8002.755,-335.655,23233.59,-18932.715
-31291.739999999998,-33989.715,7536.105,11940.345,-8286.57,-790.29,23101.155,-18590.805
-29803.545,-32411.789999999997,7704.2699999999995,11355.21,-9390.105,-2630.88,22277.204999999998,-17371.845
-28848.96,-31436.055,7980.075,10910.609999999999,-10222.515,-4021.83,21482.594999999998,-16471.26
-29040.39,-31669.335,8076.105,10967.4,-10158.164999999999,-3910.095,21262.23,-16549.739999999998
-29397.105,-32052.465,8065.259999999999,11157.885,-9787.77,-3458.79,21266.91,-16852.274999999998
-30054.195,-32746.41,7931.88,11472.795,-9244.305,-2641.86,21491.46,-17399.204999999998
-31730.895,-34505.909999999996,7556.085,12293.91,-7919.505,-571.275,22405.274999999998,-18815.76
-32931.72,-35721.54,7085.835,12985.92,-6852.96,1240.74,23313.87,-19971.315
-32976.854999999996,-35718.659999999996,6808.1849999999995,13176.63,-6721.83,1737.99,23707.395,-20160.27
-32712.66,-35413.92,6662.565,13147.38,-6953.67,1577.835,23848.155,-20015.145
-32136.84,-34782.299999999996,6637.634999999999,12965.805,-7434.2699999999995,1018.125,23746.32,-19604.52
-30593.789999999997,-33135.03,6815.474999999999,12234.734999999999,-8664.119999999999,-768.1949999999999,22963.635,-18362.7
-29607.614999999998,-32115.465,7070.219999999999,11631.689999999999,-9524.205,-1807.155,22173.75,-17442.54
-29768.265,-32301.765,7169.67,11544.074999999999,-9603.945,-1458.8999999999999,21946.77,-17494.335
-30197.565,-32756.039999999997,7103.025,11628.81,-9469.8,-583.8299999999999,21971.52,-17868.555
-30847.815,-33439.185,6967.259999999999,11886.029999999999,-9060.345,273.555,22217.129999999997,-18442.98
-32412.015,-35076.375,6679.485,12708.539999999999,-7910.37,2150.19,23096.655,-19786.454999999998
-33526.215,-36203.939999999995,6287.3099999999995,13415.939999999999,-6969.0599999999995,3762.315,23979.78,-20885.94
-33633.945,-36266.22,5999.355,13570.019999999999,-6814.53,4170.42,24400.17,-21141.495
-33278.534999999996,-35855.145,5912.55,13466.07,-7076.88,3850.29,24512.895,-20919.87
-32696.19,-35213.4,5927.04,13144.095,-7607.5199999999995,3093.345,24419.114999999998,-20493.135
-31083.164999999997,-33494.94,6175.844999999999,12243.689999999999,-8945.64,1122.435,23666.309999999998,-19196.19
-30055.094999999998,-32429.925,6519.509999999999,11509.965,-10019.34,-351.99,22952.52,-18232.425
-30138.12,-32533.515,6706.349999999999,11378.88,-10209.914999999999,-405.09,22751.774999999998,-18207.405
-30502.215,-32909.265,6737.13,11455.875,-10201.14,61.559999999999995,22778.145,-18495.045
-31155.57,-33583.365,6661.485,11716.605,-10032.93,784.7099999999999,23026.454999999998,-19029.555
-32754.555,-35259.03,6372.63,12544.109999999999,-9142.109999999999,2799.72,23929.739999999998,-20361.555
-33922.08,-36433.034999999996,5966.73,13247.595,-8373.645,4426.5599999999995,24875.145,-21473.055
-34072.065,-36522.945,5676.48,13433.625,-8331.93,4829.804999999999,25372.53,-21746.43
-33846.975,-36230.939999999995,5549.67,13352.984999999999,-8556.029999999999,4721.355,25543.035,-21619.755
-33308.685,-35619.57,5555.205,13089.779999999999,-8975.565,4277.835,25414.829999999998,-21219.614999999998
-31778.73,-33969.465,5797.17,12233.97,-10180.44,2471.985,24678.0,-19998.855
-30754.079999999998,-32900.895,6144.66,11551.455,-11121.84,1115.55,23940.36,-19044.945
-30936.645,-33105.284999999996,6268.32,11529.135,-11165.715,1174.995,23764.995,-19080.855
-31295.745,-33475.59,6252.4349999999995,11750.31,-10913.805,1567.44,23827.95,-19351.44
-32044.905,-34257.42,6108.389999999999,12137.13,-10422.225,2479.725,24101.774999999998,-19949.265
-33881.22,-36167.04,5676.57,13104.135,-9063.09,5020.514999999999,25056.719999999998,-21477.645
-35398.125,-37697.174999999996,5054.22,13872.914999999999,-7859.565,7468.2,26104.905,-22920.48
-35768.295,-38008.215,4595.76,14047.109999999999,-7401.42,8564.039999999999,26663.579999999998,-23467.004999999997
-35622.494999999995,-37800.54,4344.705,13979.97,-7215.929999999999,8670.33,26882.37,-23505.614999999998
-35249.625,-37373.534999999996,4184.19,13795.244999999999,-7181.054999999999,8251.515,26888.985,-23343.03
-33727.68,-35743.814999999995,4321.575,13006.08,-7877.745,6247.8,26179.785,-22232.745
-32726.295,-34705.44,4613.04,12398.535,-8293.185,4758.12,25457.399999999998,-21354.03
-33057.405,-35087.174999999996,4631.04,12438.18,-7826.985,5109.615,25317.18,-21570.614999999998
-33503.715,-35543.43,4498.29,12672.359999999999,-7100.55,5657.535,25401.825,-21969.675
-34321.68,-36364.77,4263.84,13088.97,-6262.0199999999995,6541.605,25730.19,-22659.39
-36218.79,-38327.445,3767.355,14147.144999999999,-4809.735,9124.83,26755.785,-24266.385
-37636.335,-39745.395,3109.5,15060.105,-3607.92,11488.635,27812.61,-25676.864999999998
-37968.705,-39976.244999999995,2617.38,15396.435,-3134.475,12207.33,28398.51,-26225.46
-37863.63,-39746.52,2339.73,15424.109999999999,-3008.475,12357.27,28652.309999999998,-26321.175
-37416.555,-39196.08,2221.38,15215.76,-3220.2,12118.859999999999,28774.934999999998,-26124.075
-35866.305,-37506.51,2338.38,14312.25,-4158.99,10261.484999999999,28193.355,-25027.335
-34748.82,-36329.58,2585.52,13560.21,-4887.405,8685.81,27544.59,-24087.735
-34936.065,-36535.635,2667.87,13521.734999999999,-4646.7,8550.99,27482.039999999997,-24132.645
-35495.865,-37116.54,2555.505,13736.43,-4062.555,9126.72,27669.78,-24548.309999999998
-36370.215,-38070.945,2294.2799999999997,14120.055,-3393.765,10324.08,28041.03,-25231.004999999997
-38219.76,-40087.755,1820.8799999999999,15203.115,-1939.995,12837.24,29079.809999999998,-26730.765
-39633.795,-41577.975,1160.82,16129.17,-698.895,14965.83,30172.184999999998,-28083.51
-39952.665,-41861.205,618.165,16373.925,-180.35999999999999,15980.58,30729.78,-28594.754999999997
-39777.255,-41616.72,278.19,16357.814999999999,-166.36499999999998,16372.619999999999,30969.989999999998,-28589.579999999998
-39237.39,-40959.36,75.375,16129.574999999999,-650.0699999999999,16118.234999999999,30984.975,-28267.155
-37420.604999999996,-38919.33,210.915,15170.67,-2103.93,14250.285,30256.515,-26905.545
-36112.229999999996,-37518.075,579.06,14342.265,-3440.8799999999997,12602.88,29548.62,-25736.355
-36139.635,-37553.895,809.5949999999999,14227.83,-3829.095,12567.105,29424.825,-25574.175
-36485.955,-37911.195,895.005,14357.835,-3839.94,13086.225,29571.164999999997,-25773.614999999998
-37193.85,-38694.015,823.9499999999999,14658.029999999999,-3580.1549999999997,14029.65,29971.305,-26283.465
-38942.055,-40634.505,485.955,15640.335,-2535.5699999999997,16312.635,31043.655,-27640.89
-40178.88,-41930.64,-11.07,16478.82,-1660.905,18083.43,32118.84,-28797.12
-40349.88,-42049.575,-420.34499999999997,16644.735,-1690.47,19114.739999999998,32686.065,-29144.475
-39925.935,-41556.869999999995,-611.28,16484.579999999998,-2232.1349999999998,19218.285,32927.22,-28936.26
-39115.935,-40662.405,-608.49,16086.599999999999,-2993.625,18361.71,32936.22,-28395.045
-37164.555,-38523.195,-260.325,14975.91,-4700.79,16101.63,32279.895,-26929.98
-35819.235,-37105.38,263.96999999999997,14038.605,-6162.66,14310.135,31597.785,-25705.62
-35761.68,-37096.515,621.3149999999999,13865.58,-6710.804999999999,14126.67,31481.37,-25456.995
-36014.174999999996,-37399.455,788.49,13955.984999999999,-7008.389999999999,14471.91,31627.35,-25554.78
-36595.619999999995,-38067.435,821.115,14236.38,-7078.815,15190.92,32012.684999999998,-25926.75
-38264.985,-39887.369999999995,607.095,15237.72,-6323.849999999999,17274.329999999998,33154.11,-27147.42
-39560.805,-41189.985,191.295,16119.135,-5770.53,19068.524999999998,34337.655,-28294.425
-39626.369999999995,-41159.61,-42.795,16332.345,-6066.945,19409.309999999998,34985.88,-28571.309999999998
-39284.685,-40737.15,-76.67999999999999,16227.585,-6713.775,19102.32,35289.494999999995,-28421.64
-38612.25,-39943.439999999995,28.665,15898.769999999999,-7565.4,18338.895,35397.72,-27971.684999999998
-36752.67,-37846.89,478.215,14827.095,-9256.185,16055.055,34676.685,-26585.19
-35490.689999999995,-36490.005,1065.825,13925.07,-10640.34,14186.835,33956.28,-25421.489999999998
-35482.59,-36504.674999999996,1458.54,13775.22,-11084.984999999999,13834.305,33835.32,-25206.344999999998
-35766.72,-36804.915,1651.995,13876.56,-11205.359999999999,14031.585,33973.244999999995,-25333.695
-36442.575,-37517.58,1643.445,14156.279999999999,-11088.494999999999,14733.359999999999,34366.14,-25728.885
-38289.284999999996,-39514.229999999996,1307.1599999999999,15149.34,-10088.595,16878.329999999998,35502.615,-27035.684999999998
-39659.625,-40897.439999999995,826.9649999999999,16023.51,-9297.855,18680.67,36665.145,-28258.92
-39819.06,-40920.03,532.035,16230.644999999999,-9336.465,19140.885,37250.46,-28616.039999999997
-39542.49,-40509.0,472.995,16116.119999999999,-9730.44,18981.405,37515.24,-28536.164999999997
