ch_0,ch_1,ch_2,ch_3,ch_4,ch_5,ch_6,ch_7
5292.764999999999,-37541.88,-25367.94,-14259.6,-11218.68,-58370.354999999996,-10412.865,11405.88
5275.71,-37552.229999999996,-25369.515,-14246.369999999999,-11179.439999999999,-58323.555,-10388.43,11392.83
5278.275,-37547.505,-25385.985,-14264.01,-11186.82,-58348.89,-10380.105,11395.035
5305.095,-37524.6,-25398.27,-14291.505,-11227.545,-58467.42,-10378.035,11418.795
5357.025,-37492.244999999995,-25436.879999999997,-14378.355,-11343.24,-58686.479999999996,-10352.565,11472.39
5386.1849999999995,-37488.689999999995,-25512.614999999998,-14512.275,-11500.92,-58855.185,-10328.535,11510.91
5392.53,-37491.255,-25547.04,-14581.529999999999,-11584.26,-58916.07,-10332.404999999999,11520.675
5395.275,-37493.28,-25548.93,-14605.515,-11617.154999999999,-58922.505,-10358.055,11522.07
5391.8099999999995,-37497.375,-25512.795,-14554.98,-11554.56,-58836.24,-10392.975,11513.925
5370.48,-37502.055,-25443.945,-14432.355,-11411.46,-58676.445,-10436.49,11476.305
5318.01,-37522.26,-25379.91,-14326.83,-11290.14,-58517.549999999996,-10457.55,11408.805
5268.96,-37550.564999999995,-25354.665,-14293.755,-11237.984999999999,-58414.814999999995,-10437.435,11366.505
5258.474999999999,-37560.33,-25357.094999999998,-14309.505,-11225.16,-58387.86,-10407.285,11370.06
5284.71,-37541.205,-25367.265,-14326.289999999999,-11251.08,-58433.67,-10387.755,11400.21
5316.974999999999,-37514.655,-25365.285,-14316.615,-11294.189999999999,-58502.97,-10374.255,11434.275
5333.22,-37503.045,-25357.815,-14300.144999999999,-11328.164999999999,-58561.74,-10378.215,11444.805
5338.665,-37503.585,-25358.355,-14299.605,-11355.615,-58602.78,-10385.01,11449.664999999999
5346.224999999999,-37496.744999999995,-25343.55,-14287.635,-11358.945,-58594.68,-10382.265,11457.81
5356.26,-37483.47,-25328.565,-14288.31,-11354.31,-58578.255,-10361.744999999999,11469.734999999999
5350.23,-37484.595,-25344.809999999998,-14337.9,-11387.43,-58638.735,-10351.08,11476.395
5335.155,-37489.68,-25350.075,-14350.994999999999,-11399.355,-58705.829999999994,-10365.84,11471.85
5322.915,-37491.345,-25347.825,-14345.73,-11392.515,-58692.78,-10376.145,11464.02
5326.965,-37483.064999999995,-25343.91,-14343.119999999999,-11390.22,-58662.134999999995,-10373.49,11469.645
5319.54,-37486.575,-25339.14,-14332.859999999999,-11386.664999999999,-58644.27,-10380.824999999999,11464.56
5301.945,-37501.875,-25341.12,-14324.984999999999,-11389.68,-58644.854999999996,-10381.41,11450.43
5303.295,-37509.615,-25358.399999999998,-14340.734999999999,-11414.16,-58665.78,-10352.565,11456.685
5302.575,-37526.805,-25391.34,-14378.715,-11452.41,-58684.725,-10340.145,11459.25
5302.71,-37529.01,-25396.02,-14391.63,-11469.105,-58690.395,-10345.994999999999,11455.92
5324.04,-37509.299999999996,-25380.719999999998,-14382.585,-11467.935,-58684.68,-10329.615,11475.359999999999
5318.235,-37509.705,-25364.879999999997,-14360.58,-11453.31,-58662.765,-10333.305,11468.205
5294.745,-37520.369999999995,-25355.114999999998,-14330.835,-11408.445,-58608.27,-10345.41,11443.41
5268.195,-37539.72,-25384.274999999998,-14360.175,-11423.88,-58619.34,-10355.94,11413.619999999999
5273.46,-37538.145,-25398.809999999998,-14389.875,-11456.505,-58664.295,-10347.885,11420.1
5295.33,-37531.08,-25428.915,-14446.755,-11529.09,-58753.755,-10330.47,11447.369999999999
5315.67,-37517.04,-25435.98,-14464.394999999999,-11556.135,-58789.17,-10340.55,11457.72
5333.22,-37492.965,-25392.735,-14410.845,-11498.175,-58743.405,-10372.635,11454.21
5341.1849999999995,-37476.27,-25331.76,-14332.68,-11413.35,-58661.685,-10399.815,11444.805
5334.795,-37473.659999999996,-25272.989999999998,-14240.385,-11316.015,-58552.515,-10389.869999999999,11436.435
5326.605,-37477.619999999995,-25245.899999999998,-14178.689999999999,-11241.18,-58453.38,-10369.44,11429.01
5306.085,-37495.17,-25252.29,-14171.13,-11224.305,-58422.104999999996,-10355.94,11407.23
5309.73,-37492.155,-25251.03,-14173.109999999999,-11223.314999999999,-58423.409999999996,-10330.02,11410.965
5318.6849999999995,-37490.625,-25259.489999999998,-14190.48,-11239.38,-58444.244999999995,-10322.73,11418.975
5326.155,-37488.42,-25273.26,-14213.475,-11270.385,-58482.18,-10329.48,11421.494999999999
5335.5599999999995,-37482.659999999996,-25283.7,-14228.369999999999,-11292.119999999999,-58507.02,-10329.119999999999,11429.91
5343.929999999999,-37476.405,-25290.18,-14236.695,-11308.05,-58536.81,-10318.23,11446.875
5354.82,-37469.295,-25294.68,-14239.845,-11319.164999999999,-58566.915,-10309.904999999999,11464.154999999999
5366.205,-37479.96,-25323.795,-14272.965,-11358.72,-58624.829999999994,-10320.164999999999,11466.225
5404.86,-37469.744999999995,-25344.945,-14307.705,-11410.965,-58729.005,-10309.14,11491.244999999999
5466.735,-37429.29,-25347.87,-14336.685,-11451.015,-58813.515,-10267.965,11543.49
5492.969999999999,-37416.015,-25364.969999999998,-14373.99,-11495.88,-58826.025,-10263.465,11558.16
5511.78,-37409.715,-25363.8,-14377.859999999999,-11518.02,-58805.954999999994,-10260.675,11572.605
5500.349999999999,-37430.595,-25354.934999999998,-14357.025,-11511.045,-58758.479999999996,-10276.47,11557.215
5457.96,-37474.965,-25347.6,-14317.154999999999,-11463.75,-58668.525,-10300.68,11512.484999999999
5432.355,-37492.515,-25344.765,-14306.715,-11431.574999999999,-58600.979999999996,-10296.99,11492.1
5447.295,-37470.645,-25373.34,-14353.965,-11464.199999999999,-58658.625,-10285.38,11507.265
5488.695,-37425.195,-25379.415,-14385.24,-11506.77,-58746.42,-10297.71,11528.324999999999
5527.485,-37388.205,-25386.254999999997,-14421.869999999999,-11580.93,-58915.845,-10306.529999999999,11562.57
5579.775,-37355.04,-25392.78,-14449.725,-11672.685,-59115.509999999995,-10292.22,11616.21
5600.969999999999,-37350.81,-25370.64,-14412.6,-11666.205,-59084.055,-10305.72,11619.675
5548.545,-37398.24,-25334.235,-14332.904999999999,-11584.664999999999,-58911.704999999994,-10343.07,11555.055
5484.0599999999995,-37451.744999999995,-25290.36,-14239.574999999999,-11472.029999999999,-58717.305,-10368.81,11483.595
5486.8949999999995,-37450.979999999996,-25268.129999999997,-14203.484999999999,-11400.795,-58587.39,-10349.865,11486.16
5506.11,-37436.49,-25289.415,-14253.435,-11432.97,-58566.825,-10311.75,11502.945
5519.07,-37434.78,-25325.145,-14314.32,-11480.355,-58622.265,-10289.925,11517.795
5534.73,-37443.735,-25397.055,-14415.39,-11564.505,-58744.665,-10292.984999999999,11535.21
5588.099999999999,-37408.635,-25412.895,-14453.505,-11606.355,-58854.465,-10311.029999999999,11579.13
5620.005,-37374.525,-25372.89,-14401.215,-11585.835,-58879.979999999996,-10330.02,11598.84
5600.16,-37375.83,-25283.43,-14252.265,-11463.255,-58772.61,-10359.135,11570.939999999999
5601.735,-37370.924999999996,-25218.315,-14146.515,-11364.345,-58653.854999999996,-10361.205,11566.98
5594.985,-37371.645,-25176.69,-14082.435,-11304.494999999999,-58556.61,-10375.83,11543.355
5563.26,-37389.465,-25138.934999999998,-14004.63,-11210.58,-58400.369999999995,-10377.81,11498.76
5538.195,-37397.205,-25127.594999999998,-13969.17,-11148.615,-58292.729999999996,-10364.805,11468.16
5542.11,-37386.225,-25122.555,-13964.445,-11133.99,-58254.615,-10332.27,11474.279999999999
5546.34,-37381.14,-25137.855,-13988.744999999999,-11163.375,-58279.59,-10317.645,11479.23
5563.98,-37370.655,-25147.17,-14010.255,-11205.945,-58345.92,-10312.83,11498.895
5581.53,-37360.665,-25135.245,-13990.904999999999,-11215.664999999999,-58394.34,-10325.43,11513.52
5593.635,-37355.805,-25123.68,-13963.68,-11205.135,-58409.549999999996,-10341.63,11517.66
5597.91,-37349.145,-25104.149999999998,-13934.654999999999,-11177.595,-58380.84,-10335.105,11513.205
5596.155,-37349.595,-25108.605,-13933.484999999999,-11179.439999999999,-58391.82,-10329.705,11510.46
5597.235,-37356.93,-25136.19,-13964.13,-11216.609999999999,-58442.31,-10341.72,11512.08
5617.304999999999,-37342.845,-25138.395,-13975.605,-11236.68,-58475.43,-10336.365,11526.705
5622.66,-37344.33,-25152.614999999998,-13995.0,-11268.99,-58526.865,-10343.115,11526.84
5638.545,-37339.65,-25194.555,-14053.904999999999,-11338.154999999999,-58615.335,-10340.19,11543.76
5671.71,-37312.335,-25216.92,-14096.88,-11396.654999999999,-58697.505,-10334.925,11573.279999999999
5682.96,-37304.415,-25223.445,-14116.769999999999,-11433.015,-58754.204999999994,-10348.695,11581.335
5675.13,-37314.314999999995,-25222.274999999998,-14116.904999999999,-11443.455,-58760.775,-10368.585,11570.31
5648.67,-37335.465,-25214.895,-14088.824999999999,-11414.295,-58708.665,-10393.92,11538.27
5634.045,-37336.5,-25172.415,-14010.21,-11329.965,-58596.93,-10406.205,11515.77
5635.17,-37330.604999999996,-25140.555,-13955.58,-11269.26,-58531.814999999995,-10400.984999999999,11513.654999999999
5641.245,-37331.505,-25140.96,-13945.769999999999,-11247.345,-58499.055,-10401.345,11518.335
5638.094999999999,-37338.345,-25145.864999999998,-13950.0,-11249.369999999999,-58477.005,-10403.414999999999,11512.98
5638.5,-37338.93,-25132.004999999997,-13919.49,-11237.22,-58466.115,-10395.27,11515.994999999999
5665.365,-37319.625,-25122.149999999998,-13897.394999999999,-11239.965,-58490.1,-10379.475,11541.555
5682.24,-37304.055,-25147.89,-13944.105,-11328.705,-58609.53,-10381.68,11552.85
5697.495,-37295.145,-25177.815,-13990.68,-11409.435,-58694.579999999994,-10378.98,11564.46
5714.28,-37284.975,-25186.23,-14004.72,-11425.59,-58706.954999999994,-10384.289999999999,11575.755
5719.32,-37291.005,-25199.1,-14009.535,-11434.455,-58745.564999999995,-10391.445,11581.605
5713.74,-37305.314999999995,-25193.07,-13984.244999999999,-11421.63,-58759.965,-10410.255,11575.484999999999
5700.0599999999995,-37309.049999999996,-25136.594999999998,-13888.394999999999,-11318.939999999999,-58633.784999999996,-10428.029999999999,11552.625
5666.715,-37335.195,-25121.655,-13845.555,-11260.619999999999,-58530.329999999994,-10438.425,11515.41
5671.17,-37330.83,-25121.07,-13837.005,-11234.205,-58459.725,-10439.145,11516.445
5665.679999999999,-37318.77,-25102.485,-13809.105,-11186.73,-58374.0,-10440.27,11500.92
5637.51,-37336.455,-25114.545,-13806.494999999999,-11161.98,-58323.195,-10433.925,11472.84
5674.41,-37306.215,-25126.379999999997,-13841.73,-11202.39,-58385.204999999994,-10414.89,11511.585
5717.385,-37275.659999999996,-25151.94,-13893.795,-11259.9,-58493.924999999996,-10419.3,11549.385
5732.1449999999995,-37267.965,-25171.605,-13917.465,-11295.539999999999,-58557.555,-10430.775,11544.48
5751.315,-37253.655,-25178.67,-13930.47,-11326.994999999999,-58605.479999999996,-10434.69,11546.775
5771.5199999999995,-37239.93,-25170.795,-13921.83,-11350.845,-58662.314999999995,-10433.835,11558.52
5770.17,-37238.67,-25145.954999999998,-13881.914999999999,-11323.89,-58654.845,-10455.48,11542.23
5734.08,-37248.93,-25091.504999999997,-13793.175,-11254.41,-58570.244999999995,-10482.255,11491.83
5720.264999999999,-37259.28,-25064.73,-13726.755,-11185.92,-58472.235,-10483.38,11483.145
5716.349999999999,-37255.814999999995,-25049.024999999998,-13692.015,-11147.805,-58427.325,-10470.33,11482.965
5709.915,-37261.485,-25062.975,-13700.34,-11177.055,-58500.09,-10456.199999999999,11479.185
5710.679999999999,-37268.189999999995,-25084.17,-13721.355,-11223.945,-58550.67,-10445.67,11483.685
5732.775,-37252.485,-25091.055,-13744.89,-11267.414999999999,-58574.744999999995,-10447.83,11502.314999999999
5769.54,-37223.595,-25095.87,-13770.449999999999,-11291.625,-58592.52,-10461.105,11529.0
5778.8099999999995,-37217.295,-25098.254999999997,-13774.769999999999,-11282.22,-58562.775,-10476.18,11529.0
5764.95,-37227.78,-25079.85,-13745.16,-11254.994999999999,-58473.99,-10472.039999999999,11514.51
5764.23,-37227.465,-25061.67,-13729.23,-11215.125,-58415.805,-10475.19,11514.465
5751.9,-37233.945,-25055.325,-13713.21,-11206.439999999999,-58421.34,-10483.065,11502.81
5741.865,-37246.545,-25052.085,-13679.234999999999,-11184.39,-58413.375,-10497.869999999999,11484.314999999999
5750.955,-37233.405,-25042.545,-13662.404999999999,-11170.17,-58405.545,-10489.904999999999,11484.9
5769.675,-37222.11,-25068.285,-13696.244999999999,-11213.01,-58483.439999999995,-10486.98,11501.505
5787.945,-37216.17,-25082.415,-13706.01,-11235.779999999999,-58530.375,-10485.09,11525.984999999999
5786.91,-37219.905,-25079.715,-13704.3,-11254.455,-58559.579999999994,-10498.77,11527.47
5789.61,-37219.905,-25076.565,-13692.96,-11254.994999999999,-58545.494999999995,-10508.49,11530.305
5776.83,-37222.74,-25051.004999999997,-13643.324999999999,-11206.98,-58467.78,-10513.845,11509.064999999999
5764.365,-37237.5,-25056.09,-13619.385,-11176.515,-58431.869999999995,-10510.965,11497.455
5792.219999999999,-37218.104999999996,-25066.395,-13620.555,-11164.005,-58413.645,-10487.205,11523.06
5825.61,-37199.34,-25106.895,-13684.5,-11253.195,-58548.689999999995,-10480.815,11551.185
5866.469999999999,-37171.395,-25131.42,-13720.814999999999,-11311.875,-58672.305,-10483.83,11585.07
5869.485,-37175.174999999996,-25144.559999999998,-13728.06,-11335.904999999999,-58718.52,-10511.505,11581.289999999999
5861.429999999999,-37176.21,-25102.844999999998,-13675.59,-11322.72,-58668.795,-10524.69,11566.305
5831.955,-37195.064999999995,-25069.41,-13636.394999999999,-11291.13,-58543.244999999995,-10539.09,11531.835
5775.48,-37233.405,-25039.844999999998,-13554.945,-11188.574999999999,-58402.485,-10559.34,11467.305
5746.05,-37257.615,-25023.96,-13491.539999999999,-11108.744999999999,-58306.68,-10548.539999999999,11435.445
5763.735,-37246.455,-25035.165,-13498.425,-11132.64,-58328.369999999995,-10527.119999999999,11455.74
5802.21,-37222.604999999996,-25052.805,-13528.439999999999,-11175.57,-58417.604999999996,-10515.42,11494.98
5850.585,-37186.02,-25053.03,-13537.98,-11200.59,-58510.845,-10516.32,11534.535
5876.46,-37165.814999999995,-25077.51,-13568.984999999999,-11251.755,-58602.42,-10524.06,11553.525
5874.165,-37174.32,-25108.469999999998,-13596.164999999999,-11292.255,-58669.38,-10526.445,11551.32
5867.639999999999,-37180.439999999995,-25104.195,-13593.195,-11303.73,-58674.24,-10538.955,11544.705
5842.98,-37195.604999999996,-25082.19,-13550.805,-11259.359999999999,-58583.97,-10549.44,11518.02
5805.09,-37224.405,-25068.149999999998,-13517.595,-11225.789999999999,-58489.65,-10565.055,11479.814999999999
5785.65,-37233.81,-25045.605,-13459.994999999999,-11127.375,-58338.314999999995,-10575.225,11457.9
5778.405,-37231.02,-25032.239999999998,-13429.305,-11076.029999999999,-58279.185,-10575.09,11448.855
5815.44,-37194.119999999995,-25020.585,-13424.67,-11095.38,-58339.395,-10555.02,11484.18
5849.46,-37171.665,-25038.899999999998,-13456.08,-11164.32,-58468.86,-10552.185,11510.955
5875.29,-37153.979999999996,-25049.655,-13473.539999999999,-11195.55,-58535.235,-10545.345,11529.404999999999
5860.26,-37172.655,-25070.399999999998,-13484.385,-11211.48,-58572.225,-10570.095,11511.9
