ch_0,ch_1,ch_2,ch_3,ch_4,ch_5,ch_6,ch_7
8942.445,-30870.405,13393.484999999999,-12864.33,-21348.405,-42884.189999999995,1612.665,-1981.62
8910.585,-30866.895,13372.289999999999,-12911.039999999999,-21374.73,-42888.735,1612.62,-1991.61
8886.015,-30873.105,13373.595,-12906.314999999999,-21356.594999999998,-42852.869999999995,1615.185,-2008.7549999999999
8873.055,-30864.87,13387.994999999999,-12894.164999999999,-21336.075,-42829.424999999996,1598.625,-2019.735
8864.414999999999,-30874.68,13399.92,-12902.49,-21344.579999999998,-42844.86,1569.6,-2024.1899999999998
8883.945,-30854.114999999998,13365.494999999999,-12909.375,-21358.665,-42867.72,1565.0549999999998,-2007.36
8899.154999999999,-30869.145,13394.34,-12864.42,-21328.29,-42860.115,1571.1299999999999,-1992.6899999999998
8876.34,-30883.68,13377.51,-12833.01,-21284.82,-42824.025,1574.82,-1997.595
8875.8,-30931.649999999998,13346.55,-12807.63,-21262.545,-42807.42,1584.945,-1990.62
8873.685,-30920.129999999997,13326.93,-12845.564999999999,-21299.94,-42844.365,1576.1699999999998,-1994.2649999999999
8843.22,-30883.05,13340.654999999999,-12887.505,-21326.535,-42859.395,1560.87,-2006.37
8804.925,-30943.62,13282.92,-12926.115,-21340.305,-42862.455,1549.08,-2016.8999999999999
8819.595,-30936.105,13262.805,-12914.144999999999,-21319.92,-42844.725,1541.52,-2012.5349999999999
8804.07,-30871.215,13319.369999999999,-12885.39,-21306.78,-42841.89,1527.48,-2036.52
8786.16,-30855.96,13354.019999999999,-12860.73,-21293.055,-42835.229999999996,1518.6599999999999,-2046.96
8808.615,-30848.895,13403.835,-12832.289999999999,-21270.42,-42818.715,1512.135,-2032.83
8849.835,-30846.105,13422.51,-12817.439999999999,-21251.745,-42800.354999999996,1508.175,-2013.7949999999998
8896.41,-30772.44,13410.539999999999,-12818.43,-21261.87,-42810.659999999996,1513.665,-1991.97
8863.785,-30708.719999999998,13413.42,-12867.75,-21302.28,-42826.545,1501.56,-2010.24
8802.045,-30751.289999999997,13386.869999999999,-12901.005,-21296.925,-42787.89,1498.4099999999999,-2050.605
8786.61,-30799.89,13376.115,-12880.439999999999,-21264.3,-42761.07,1499.04,-2060.64
8826.57,-30896.414999999997,13345.47,-12809.744999999999,-21225.059999999998,-42764.939999999995,1491.2549999999999,-2019.06
8907.84,-30878.864999999998,13273.335,-12811.005,-21239.774999999998,-42800.985,1472.3999999999999,-1953.99
8916.795,-30814.245,13263.705,-12853.755,-21292.785,-42853.905,1441.485,-1945.4399999999998
8862.074999999999,-30805.11,13259.385,-12911.265,-21343.59,-42889.545,1414.8,-1984.905
8845.785,-30761.864999999998,13283.91,-12921.975,-21343.005,-42873.119999999995,1414.845,-1999.1699999999998
8812.44,-30746.52,13312.305,-12898.529999999999,-21315.69,-42840.945,1419.57,-2006.235
8817.255,-30738.239999999998,13327.65,-12877.47,-21281.399999999998,-42795.99,1430.865,-1989.0449999999998
8826.255,-30748.68,13343.22,-12859.965,-21264.704999999998,-42781.814999999995,1423.125,-1986.6599999999999
8799.525,-30810.105,13336.65,-12843.135,-21252.285,-42778.71,1408.6799999999998,-2000.2949999999998
8807.895,-30854.789999999997,13276.529999999999,-12860.055,-21266.864999999998,-42794.955,1385.235,-2003.355
8827.11,-30782.565,13261.994999999999,-12894.345,-21322.89,-42862.275,1340.685,-2011.5449999999998
8841.914999999999,-30701.114999999998,13325.894999999999,-12885.615,-21322.575,-42859.395,1333.35,-2002.1399999999999
8820.494999999999,-30710.43,13366.71,-12876.615,-21312.36,-42842.34,1330.245,-2006.7749999999999
8820.36,-30763.44,13338.63,-12903.84,-21315.96,-42824.79,1341.72,-1999.845
8798.895,-30773.204999999998,13295.835,-12929.22,-21315.465,-42813.63,1325.52,-2020.5449999999998
8774.73,-30770.864999999998,13310.324999999999,-12887.685,-21286.755,-42802.92,1293.345,-2048.715
8770.994999999999,-30810.96,13295.43,-12836.25,-21250.485,-42775.155,1298.97,-2043.1799999999998
8776.26,-30778.335,13320.585,-12837.689999999999,-21263.219999999998,-42781.5,1304.955,-2027.475
8774.595,-30797.73,13291.65,-12890.699999999999,-21305.655,-42812.46,1304.6399999999999,-2001.375
8781.525,-30781.079999999998,13288.68,-12923.055,-21337.155,-42839.189999999995,1278.675,-2000.8799999999999
8796.465,-30759.074999999997,13334.535,-12917.34,-21336.255,-42834.6,1269.18,-1998.3149999999998
8796.51,-30771.405,13311.855,-12921.48,-21330.0,-42831.045,1272.735,-1989.855
8783.19,-30761.82,13298.13,-12915.9,-21322.395,-42832.439999999995,1249.425,-2013.9299999999998
8781.84,-30726.0,13294.619999999999,-12860.189999999999,-21273.93,-42794.01,1239.345,-2027.52
8742.195,-30710.07,13313.115,-12839.805,-21244.5,-42759.36,1243.62,-2044.1699999999998
8701.425,-30786.3,13324.32,-12871.619999999999,-21253.635,-42751.71,1248.12,-2056.77
8693.145,-30816.989999999998,13284.359999999999,-12900.42,-21255.93,-42739.515,1237.995,-2051.595
8692.605,-30797.37,13294.08,-12928.814999999999,-21291.48,-42781.365,1224.135,-2046.105
8737.199999999999,-30741.84,13303.755,-12958.965,-21339.18,-42832.71,1221.2549999999999,-2037.4199999999998
8757.135,-30699.539999999997,13299.345,-12956.445,-21345.795,-42854.22,1215.405,-2028.915
8806.365,-30645.945,13383.09,-12886.244999999999,-21302.91,-42846.93,1211.1299999999999,-1989.135
8839.395,-30668.489999999998,13324.05,-12853.89,-21257.235,-42804.9,1231.56,-1955.835
8843.76,-30715.155,13278.555,-12826.574999999999,-21225.015,-42777.314999999995,1228.095,-1958.31
8855.91,-30675.96,13321.35,-12840.705,-21235.14,-42781.994999999995,1220.625,-1961.955
8817.345,-30659.175,13318.785,-12869.324999999999,-21243.015,-42771.465,1211.1299999999999,-1981.8899999999999
8769.33,-30630.555,13305.96,-12892.814999999999,-21257.594999999998,-42782.22,1191.06,-2012.76
8731.305,-30616.11,13305.869999999999,-12914.414999999999,-21278.34,-42799.95,1188.585,-2030.715
8709.119999999999,-30655.89,13288.05,-12928.23,-21291.3,-42809.445,1198.845,-2042.5049999999999
8692.11,-30704.985,13311.314999999999,-12920.535,-21291.93,-42815.295,1197.36,-2049.0299999999997
8710.244999999999,-30712.949999999997,13352.76,-12918.015,-21289.364999999998,-42819.615,1196.37,-2030.445
8757.0,-30658.14,13387.68,-12891.42,-21268.71,-42807.42,1201.5,-2008.125
8743.86,-30656.925,13345.019999999999,-12885.029999999999,-21258.18,-42801.255,1192.995,-2024.685
8715.105,-30689.594999999998,13374.945,-12860.369999999999,-21240.989999999998,-42794.1,1188.36,-2040.3899999999999
8754.525,-30707.235,13363.605,-12843.18,-21209.94,-42766.56,1200.555,-2011.0049999999999
8804.97,-30700.395,13314.105,-12878.369999999999,-21226.815,-42777.494999999995,1222.9199999999998,-1964.79
8813.25,-30658.454999999998,13318.244999999999,-12901.005,-21246.03,-42796.215,1211.085,-1967.175
8794.89,-30689.1,13299.57,-12911.085,-21250.575,-42799.275,1201.86,-1980.855
8798.895,-30671.64,13289.31,-12909.285,-21257.55,-42808.635,1195.695,-1986.75
8800.11,-30640.23,13326.795,-12903.119999999999,-21265.829999999998,-42824.88,1191.51,-1986.615
8797.32,-30611.385,13360.275,-12900.555,-21262.364999999998,-42823.395,1189.215,-1988.145
8768.52,-30606.074999999997,13353.029999999999,-12939.3,-21291.344999999998,-42840.494999999995,1175.445,-2011.05
8708.94,-30680.19,13321.574999999999,-12960.99,-21287.114999999998,-42820.74,1162.44,-2047.6799999999998
8667.855,-30763.62,13291.064999999999,-12969.945,-21277.215,-42802.38,1158.885,-2076.345
8682.21,-30738.78,13292.1,-12931.92,-21247.605,-42785.729999999996,1171.98,-2066.085
8767.574999999999,-30657.914999999997,13364.73,-12857.67,-21197.114999999998,-42762.735,1197.36,-2019.0149999999999
8869.635,-30577.86,13405.545,-12850.289999999999,-21189.69,-42760.125,1230.48,-1953.99
8884.305,-30589.155,13345.56,-12866.355,-21196.125,-42767.1,1228.185,-1944.495
8874.945,-30602.52,13327.38,-12877.65,-21208.364999999998,-42781.814999999995,1207.395,-1957.725
8839.8,-30608.64,13306.455,-12892.005,-21217.59,-42784.74,1197.6299999999999,-1989.1799999999998
8807.13,-30604.995,13306.095,-12905.64,-21228.93,-42789.104999999996,1194.075,-2014.74
8797.095,-30627.405,13308.93,-12928.59,-21240.09,-42791.534999999996,1204.335,-2014.47
8803.26,-30645.045,13281.255,-12951.18,-21243.825,-42786.765,1202.76,-2011.5449999999998
8800.47,-30599.19,13314.285,-12932.685,-21232.89,-42785.28,1179.855,-2027.34
8784.315,-30576.329999999998,13375.71,-12884.58,-21205.17,-42778.305,1158.57,-2047.095
8773.425,-30641.985,13347.765,-12871.305,-21176.774999999998,-42754.5,1169.325,-2042.6399999999999
8753.175,-30690.495,13269.644999999999,-12909.195,-21195.719999999998,-42764.58,1196.37,-2023.695
8759.07,-30716.235,13227.164999999999,-12947.4,-21219.614999999998,-42769.305,1216.215,-2001.4199999999998
8796.96,-30696.164999999997,13243.185,-12963.824999999999,-21242.565,-42791.805,1215.135,-1993.23
8835.345,-30635.594999999998,13308.705,-12937.545,-21237.39,-42801.57,1200.69,-1988.1899999999998
8836.605,-30587.489999999998,13347.314999999999,-12919.185,-21218.579999999998,-42787.53,1184.85,-2000.745
8797.59,-30606.93,13323.824999999999,-12928.994999999999,-21227.04,-42795.405,1177.5149999999999,-2015.865
8747.685,-30668.355,13281.21,-12954.195,-21245.76,-42803.82,1174.365,-2041.5149999999999
8739.675,-30657.914999999997,13291.65,-12973.949999999999,-21244.68,-42790.229999999996,1165.5,-2067.435
8750.835,-30668.355,13313.699999999999,-12935.07,-21202.965,-42761.835,1166.49,-2056.59
8779.815,-30704.399999999998,13311.99,-12840.705,-21136.005,-42733.755,1173.33,-2027.115
8881.244999999999,-30604.454999999998,13327.56,-12845.609999999999,-21152.204999999998,-42759.045,1199.2949999999998,-1962.675
8877.51,-30566.655,13332.779999999999,-12892.59,-21208.005,-42810.659999999996,1190.205,-1974.735
8828.01,-30586.454999999998,13325.355,-12892.904999999999,-21206.655,-42805.845,1179.0449999999998,-2002.77
8815.77,-30610.485,13306.005,-12897.63,-21204.135,-42796.619999999995,1181.655,-2000.07
8828.369999999999,-30585.465,13311.945,-12909.285,-21214.485,-42802.02,1176.705,-1994.04
8842.41,-30578.895,13323.465,-12916.755,-21216.735,-42805.979999999996,1173.555,-1986.345
8834.4,-30561.12,13301.369999999999,-12941.144999999999,-21231.405,-42816.24,1168.6499999999999,-1994.22
8810.01,-30527.504999999997,13298.67,-12952.845,-21241.53,-42821.775,1156.95,-2016.09
8753.625,-30554.954999999998,13333.769999999999,-12939.39,-21225.465,-42803.46,1148.445,-2045.5649999999998
8680.455,-30728.07,13325.67,-12929.939999999999,-21192.57,-42762.51,1155.105,-2081.79
8679.51,-30815.145,13261.095,-12945.24,-21180.195,-42742.53,1168.7849999999999,-2077.245
8740.89,-30675.735,13250.699999999999,-12931.695,-21185.28,-42757.604999999996,1166.805,-2044.125
8781.66,-30545.055,13329.72,-12914.955,-21205.844999999998,-42793.515,1168.3799999999999,-2013.705
8795.835,-30522.645,13352.31,-12916.8,-21210.66,-42803.595,1182.06,-2004.75
8804.52,-30521.835,13322.475,-12914.144999999999,-21186.989999999998,-42779.564999999995,1189.7549999999999,-2004.2549999999999
8836.244999999999,-30581.414999999997,13270.095,-12893.939999999999,-21157.875,-42750.494999999995,1208.655,-1975.6799999999998
8876.43,-30585.6,13247.55,-12904.695,-21175.829999999998,-42774.03,1199.205,-1952.865
8863.109999999999,-30564.405,13282.65,-12915.675,-21187.575,-42787.439999999995,1178.37,-1971.54
8844.525,-30536.055,13311.855,-12906.81,-21177.675,-42772.59,1174.4099999999999,-1988.955
8823.645,-30513.195,13359.375,-12906.404999999999,-21178.53,-42764.49,1175.805,-1995.3899999999999
8801.685,-30586.364999999998,13359.195,-12920.4,-21183.39,-42760.53,1180.71,-2000.79
8799.345,-30617.19,13305.869999999999,-12942.404999999999,-21193.11,-42766.56,1183.77,-1997.0549999999998
8775.045,-30634.02,13270.635,-12913.109999999999,-21171.195,-42759.99,1175.6699999999998,-2014.7849999999999
8725.994999999999,-30675.465,13248.0,-12932.234999999999,-21179.835,-42764.445,1171.8,-2049.795
8718.705,-30670.02,13232.519999999999,-12909.555,-21151.755,-42733.845,1167.615,-2061.9
8738.865,-30607.199999999997,13302.18,-12864.33,-21129.93,-42729.345,1144.485,-2057.4449999999997
8746.74,-30591.315,13335.705,-12840.75,-21117.555,-42733.305,1132.335,-2047.8149999999998
8776.26,-30615.254999999997,13284.18,-12900.644999999999,-21166.29,-42773.85,1161.0449999999998,-2008.8
8808.21,-30578.129999999997,13277.025,-12921.3,-21183.57,-42783.435,1183.4099999999999,-1983.735
8816.22,-30520.079999999998,13316.22,-12883.185,-21144.6,-42746.715,1192.5449999999998,-1990.8899999999999
8807.49,-30514.454999999998,13331.835,-12874.904999999999,-21135.96,-42741.63,1186.9199999999998,-2001.96
8816.67,-30485.204999999998,13359.15,-12879.449999999999,-21144.555,-42748.604999999996,1179.09,-2001.6899999999998
8822.61,-30471.975,13364.055,-12891.914999999999,-21160.26,-42756.75,1178.235,-2002.9499999999998
8822.61,-30446.504999999997,13396.994999999999,-12892.68,-21174.614999999998,-42772.5,1178.46,-2001.87
8822.34,-30503.25,13417.92,-12868.83,-21149.505,-42753.825,1187.055,-1996.47
8815.455,-30564.855,13365.945,-12902.265,-21151.844999999998,-42742.439999999995,1202.6699999999998,-1990.62
8792.955,-30554.19,13321.845,-12911.265,-21147.57,-42734.205,1193.175,-2005.9199999999998
8793.0,-30561.21,13259.88,-12903.255,-21139.245,-42733.305,1182.105,-2006.73
8809.289999999999,-30603.87,13249.619999999999,-12904.154999999999,-21144.87,-42741.27,1188.675,-1986.3
8840.025,-30609.989999999998,13251.914999999999,-12888.63,-21129.885,-42728.445,1204.335,-1967.3999999999999
8837.055,-30572.594999999998,13304.025,-12860.82,-21115.8,-42721.604999999996,1202.58,-1977.165
8813.25,-30584.655,13327.064999999999,-12862.305,-21125.34,-42735.33,1193.985,-1990.62
8810.775,-30576.87,13324.635,-12867.119999999999,-21128.085,-42736.095,1183.59,-1997.865
8809.785,-30562.829999999998,13299.93,-12883.545,-21133.079999999998,-42735.689999999995,1182.06,-1997.1
8807.805,-30528.629999999997,13317.795,-12893.805,-21149.19,-42752.475,1179.0,-2001.87
8811.36,-30511.215,13315.41,-12879.359999999999,-21136.68,-42738.705,1182.51,-2002.2749999999999
8788.635,-30517.11,13329.99,-12882.06,-21137.265,-42732.72,1174.455,-2024.82
8750.97,-30539.204999999998,13360.635,-12879.99,-21133.62,-42726.24,1162.62,-2046.915
8748.945,-30543.704999999998,13353.119999999999,-12873.105,-21115.755,-42707.97,1169.01,-2039.2649999999999
8753.445,-30547.17,13295.16,-12902.085,-21122.774999999998,-42704.01,1176.75,-2031.57
8766.585,-30581.864999999998,13252.994999999999,-12899.564999999999,-21110.67,-42691.905,1175.58,-2026.53
8785.845,-30630.329999999998,13242.644999999999,-12872.519999999999,-21086.19,-42679.799999999996,1188.855,-2002.59
8826.435,-30595.364999999998,13279.23,-12839.58,-21075.84,-42681.015,1198.7549999999999,-1978.3799999999999
8857.755,-30506.579999999998,13315.859999999999,-12868.38,-21120.614999999998,-42725.115,1195.695,-1971.225
