ch_0,ch_1,ch_2,ch_3,ch_4,ch_5,ch_6,ch_7
-2059.605,-22148.64,11527.875,11149.83,17307.495,-1025.595,7377.929999999999,-979.605
-2101.3199999999997,-22192.739999999998,11493.81,11152.98,17349.255,-977.895,7342.74,-1022.67
-2077.38,-22145.579999999998,11501.01,11110.59,17204.22,-1072.125,7344.405,-1021.275
-2081.97,-22154.399999999998,11505.24,11114.82,17221.725,-1106.955,7331.759999999999,-1011.015
-2194.785,-22276.44,11423.609999999999,11108.385,17431.649999999998,-924.3,7301.205,-1099.0349999999999
-2214.18,-22284.989999999998,11406.06,11074.77,17404.425,-925.29,7257.87,-1148.895
-2207.97,-22283.864999999998,11408.085,11051.865,17310.825,-1010.52,7248.96,-1137.195
-2181.42,-22264.02,11404.574999999999,11024.505,17240.76,-1127.1599999999999,7240.634999999999,-1096.425
-2214.99,-22309.469999999998,11368.98,11006.279999999999,17293.995,-1069.47,7209.719999999999,-1104.615
-2236.005,-22316.085,11362.185,11003.895,17302.23,-1071.7649999999999,7200.495,-1128.735
-2241.9,-22319.64,11361.779999999999,11001.375,17286.795,-1115.325,7190.46,-1135.8899999999999
-2269.845,-22340.925,11344.77,10988.46,17300.88,-1074.2849999999999,7188.66,-1161.315
-2239.02,-22302.765,11352.195,10963.395,17270.1,-1075.995,7166.5199999999995,-1148.985
-2254.14,-22318.155,11344.859999999999,10942.965,17239.454999999998,-1097.595,7161.48,-1154.8799999999999
-2272.005,-22319.415,11356.875,10972.395,17313.84,-1078.47,7155.134999999999,-1176.93
-2302.74,-22348.395,11335.23,10967.355,17346.6,-1070.37,7151.219999999999,-1206.585
-2311.02,-22365.27,11316.33,10936.845,17297.954999999998,-1097.6399999999999,7181.325,-1211.04
-2338.65,-22402.934999999998,11286.135,10907.955,17279.055,-1153.395,7175.205,-1229.58
-2339.235,-22399.695,11280.734999999999,10897.289999999999,17295.704999999998,-1142.415,7130.205,-1227.24
-2338.38,-22387.14,11285.595,10884.33,17266.32,-1164.555,7132.139999999999,-1230.7949999999998
-2311.515,-22355.82,11304.585,10873.935,17162.46,-1276.74,7152.705,-1214.73
-2329.2,-22364.145,11287.484999999999,10846.484999999999,17085.42,-1350.315,7169.355,-1238.175
-2364.66,-22397.445,11255.085,10835.369999999999,17216.954999999998,-1280.205,7116.075,-1274.355
-2440.17,-22488.075,11199.33,10840.545,17357.625,-1186.335,7076.474999999999,-1330.83
-2442.06,-22471.92,11209.05,10859.58,17410.95,-1084.32,7014.0599999999995,-1347.705
-2428.29,-22457.565,11204.73,10835.91,17368.47,-1102.1399999999999,7008.929999999999,-1327.455
-2438.325,-22467.149999999998,11190.285,10807.244999999999,17321.04,-1175.49,7017.344999999999,-1336.23
-2456.055,-22481.37,11175.795,10786.5,17296.38,-1210.0049999999999,7016.355,-1351.98
-2451.69,-22477.68,11175.66,10768.904999999999,17259.48,-1234.53,7020.495,-1346.445
-2446.74,-22464.629999999997,11178.63,10753.92,17222.04,-1306.44,7005.96,-1347.21
-2485.17,-22509.54,11143.529999999999,10749.06,17262.989999999998,-1319.22,6966.63,-1382.1299999999999
-2475.0899999999997,-22499.37,11154.96,10774.845,17309.385,-1254.2849999999999,6923.16,-1372.59
-2487.105,-22505.129999999997,11159.955,10779.885,17304.704999999998,-1272.4199999999998,6920.009999999999,-1380.5549999999998
-2508.48,-22529.43,11135.07,10761.795,17306.864999999998,-1266.7949999999998,6907.679999999999,-1402.425
-2517.615,-22538.655,11111.085,10728.9,17290.53,-1278.99,6909.48,-1407.87
-2544.0299999999997,-22547.204999999998,11098.935,10702.125,17257.184999999998,-1330.335,6875.91,-1443.195
-2546.415,-22553.325,11092.41,10701.675,17265.465,-1341.99,6849.45,-1440.1799999999998
-2591.325,-22611.105,11048.58,10681.38,17296.02,-1323.8999999999999,6831.36,-1470.915
-2573.865,-22589.82,11059.154999999999,10673.82,17259.345,-1320.84,6826.86,-1459.845
-2560.86,-22572.54,11062.529999999999,10663.92,17196.885,-1384.29,6824.61,-1450.1699999999998
-2559.87,-22552.92,11075.805,10671.885,17215.605,-1404.81,6804.224999999999,-1451.79
-2576.97,-22552.739999999998,11075.805,10677.869999999999,17268.255,-1369.125,6786.405,-1475.1
-2552.13,-22548.465,11072.744999999999,10665.81,17220.149999999998,-1402.965,6780.554999999999,-1440.0
-2613.375,-22632.3,11023.109999999999,10649.97,17275.86,-1345.995,6780.0599999999995,-1463.04
-2659.995,-22654.62,11005.56,10650.42,17377.47,-1274.085,6743.835,-1523.4299999999998
-2623.455,-22599.315,11024.414999999999,10621.529999999999,17255.295,-1378.125,6742.844999999999,-1508.58
-2631.105,-22622.579999999998,11005.02,10599.029999999999,17199.675,-1442.34,6749.55,-1511.19
-2676.915,-22658.85,10979.279999999999,10600.244999999999,17288.684999999998,-1413.315,6705.99,-1551.915
-2646.0899999999997,-22607.82,11002.59,10593.63,17237.07,-1466.0549999999998,6684.12,-1537.83
-2699.2799999999997,-22700.34,10937.744999999999,10554.029999999999,17210.16,-1490.2649999999999,6714.764999999999,-1560.105
-2756.205,-22752.54,10900.529999999999,10544.535,17318.43,-1363.995,6698.969999999999,-1611.6299999999999
-2767.095,-22748.085,10897.335,10526.535,17270.01,-1402.065,6698.295,-1634.715
-2750.13,-22737.375,10896.345,10517.4,17245.395,-1451.97,6677.91,-1619.5049999999999
-2741.04,-22716.765,10892.205,10485.9,17197.38,-1472.49,6698.745,-1622.655
-2710.395,-22648.68,10945.439999999999,10515.015,17197.02,-1466.19,6663.509999999999,-1627.695
-2755.395,-22694.895,10914.119999999999,10510.335,17251.785,-1468.7549999999999,6642.63,-1654.47
-2771.145,-22714.965,10889.505,10491.93,17235.72,-1486.7549999999999,6663.915,-1672.83
-2733.705,-22703.94,10882.529999999999,10485.494999999999,17173.8,-1524.825,6653.7,-1635.3899999999999
-2751.12,-22715.73,10875.105,10473.345,17113.77,-1599.75,6678.2699999999995,-1636.155
-2823.705,-22784.355,10829.654999999999,10466.279999999999,17179.425,-1582.965,6688.9349999999995,-1698.705
-2875.3199999999997,-22833.945,10782.18,10449.0,17228.925,-1528.47,6665.94,-1753.3799999999999
-2895.615,-22839.84,10772.234999999999,10443.06,17236.62,-1514.7,6640.74,-1780.2
-2872.845,-22813.739999999998,10777.32,10433.025,17224.02,-1525.0049999999999,6626.295,-1759.725
-2879.64,-22838.445,10752.705,10412.01,17204.13,-1534.2749999999999,6622.875,-1750.05
-2889.0899999999997,-22841.145,10757.16,10411.785,17194.364999999998,-1539.855,6614.91,-1757.0249999999999
-2913.975,-22859.46,10746.449999999999,10405.26,17179.785,-1558.3049999999998,6606.855,-1778.04
-2939.49,-22874.535,10727.775,10373.085,17117.91,-1581.48,6616.755,-1804.95
-2864.43,-22763.79,10789.92,10369.529999999999,16983.675,-1738.845,6576.66,-1774.8
-2845.7999999999997,-22752.719999999998,10807.199999999999,10391.22,16961.805,-1831.23,6522.3,-1757.79
-2933.2349999999997,-22867.695,10729.619999999999,10376.595,17063.91,-1690.245,6505.38,-1800.54
-2989.755,-22933.44,10673.145,10345.68,17183.25,-1611.27,6494.13,-1826.0549999999998
-3063.555,-22988.835,10638.0,10329.48,17231.76,-1548.945,6499.889999999999,-1910.205
-3063.1949999999997,-22988.43,10630.574999999999,10308.869999999999,17196.704999999998,-1632.87,6461.009999999999,-1925.1
-3047.04,-22999.454999999998,10612.619999999999,10279.845,17131.23,-1679.355,6418.755,-1870.83
-3057.0299999999997,-22996.665,10610.595,10268.91,17111.43,-1641.2849999999999,6432.57,-1883.925
-3082.005,-23003.055,10602.675,10259.64,17144.774999999998,-1620.54,6416.325,-1923.03
-3097.665,-23007.51,10591.83,10239.66,17142.345,-1654.155,6404.219999999999,-1947.465
-3078.72,-22975.335,10611.0,10233.945,17106.704999999998,-1695.78,6395.13,-1935.6299999999999
-3088.62,-22984.965,10593.765,10216.26,17083.665,-1730.97,6395.759999999999,-1943.145
-3100.005,-23007.42,10576.215,10209.51,17081.1,-1738.845,6394.634999999999,-1945.1699999999998
-3131.73,-23041.754999999997,10554.66,10197.27,17064.72,-1749.375,6386.13,-1969.83
-3123.9449999999997,-23030.055,10557.494999999999,10190.97,17029.26,-1781.325,6378.885,-1969.155
-3149.145,-23063.67,10528.65,10165.635,17001.809999999998,-1826.28,6410.969999999999,-1979.595
-3192.075,-23099.399999999998,10500.57,10144.529999999999,16998.165,-1847.25,6404.849999999999,-2023.5149999999999
-3207.285,-23108.715,10486.845,10148.76,17044.47,-1759.455,6358.635,-2051.865
-3198.7799999999997,-23097.69,10474.244999999999,10117.89,16957.71,-1858.32,6369.075,-2050.965
-3219.2999999999997,-23114.925,10468.305,10127.88,17002.485,-1864.395,6311.429999999999,-2071.935
-3270.015,-23156.46,10435.904999999999,10121.49,17081.37,-1766.61,6278.264999999999,-2119.95
-3235.995,-23126.715,10434.51,10091.565,17013.78,-1834.56,6292.575,-2087.955
-3233.52,-23120.594999999998,10450.935,10104.705,16989.57,-1868.5349999999999,6306.21,-2074.275
-3271.815,-23157.675,10418.895,10083.105,16968.96,-1873.08,6313.86,-2102.31
-3242.0699999999997,-23120.73,10427.67,10060.695,16899.12,-1935.36,6289.83,-2091.1949999999997
-3254.22,-23131.8,10426.005,10071.72,16939.71,-1946.07,6268.7699999999995,-2098.125
-3339.585,-23216.04,10369.664999999999,10078.335,17073.855,-1825.7849999999999,6251.13,-2171.0699999999997
-3346.515,-23221.934999999998,10361.475,10088.145,17123.579999999998,-1771.605,6220.844999999999,-2184.66
-3346.4249999999997,-23224.05,10353.33,10069.56,17077.095,-1813.095,6217.11,-2177.955
-3352.455,-23212.035,10353.285,10056.69,17043.885,-1851.975,6204.375,-2190.7799999999997
-3349.35,-23198.399999999998,10352.16,10032.255,16955.46,-1928.655,6189.929999999999,-2198.205
-3310.02,-23153.489999999998,10387.574999999999,10026.404999999999,16851.645,-2032.155,6181.605,-2164.815
-3358.08,-23220.18,10346.4,10014.48,16898.625,-2058.5699999999997,6174.405,-2187.63
-3424.365,-23291.19,10287.63,9994.185,17005.995,-1934.82,6143.13,-2244.69
-3414.555,-23269.094999999998,10297.845,9987.3,17002.934999999998,-1961.145,6107.58,-2251.08
-3437.46,-23284.844999999998,10290.195,9981.359999999999,17021.97,-1920.6899999999998,6085.98,-2270.025
-3471.795,-23325.39,10257.074999999999,9961.109999999999,17053.649999999998,-1869.84,6078.42,-2289.96
-3472.515,-23336.325,10244.07,9950.085,17038.755,-1886.715,6070.32,-2282.58
-3457.2599999999998,-23289.165,10267.965,9931.635,16939.215,-1969.6499999999999,6048.2699999999995,-2290.41
-3436.6949999999997,-23246.145,10284.074999999999,9907.154999999999,16881.975,-2055.105,6034.455,-2288.16
-3471.615,-23314.59,10242.494999999999,9896.49,16940.655,-2017.7549999999999,6033.51,-2301.255
-3470.895,-23308.829999999998,10246.68,9880.83,16861.635,-2076.075,6056.55,-2293.38
-3494.205,-23319.945,10232.145,9857.835,16834.86,-2154.24,6073.425,-2328.615
-3499.245,-23323.454999999998,10239.48,9875.07,16888.545,-2154.7799999999997,6027.795,-2358.315
-3581.595,-23425.92,10177.244999999999,9870.029999999999,16982.774999999998,-2010.24,5957.1449999999995,-2407.14
-3601.845,-23434.469999999998,10155.555,9833.805,16953.3,-1994.3999999999999,5978.969999999999,-2414.52
-3588.0299999999997,-23403.78,10176.705,9838.8,16930.98,-2045.205,5987.5199999999995,-2418.5699999999997
-3598.74,-23424.84,10159.605,9838.89,16959.195,-2045.5649999999998,5976.945,-2426.49
-3625.83,-23454.495,10127.52,9815.76,16976.835,-1979.1899999999998,5940.2699999999995,-2444.04
-3595.5899999999997,-23418.765,10137.015,9792.539999999999,16899.345,-2030.22,5928.885,-2412.6749999999997
-3608.5049999999997,-23434.425,10136.07,9787.545,16877.835,-2091.015,5920.0199999999995,-2420.73
-3666.69,-23497.425,10100.07,9779.355,16925.76,-2076.975,5909.67,-2465.415
-3652.9649999999997,-23473.844999999998,10107.585,9779.85,16940.61,-2068.065,5899.7699999999995,-2459.9249999999997
-3652.1549999999997,-23462.504999999997,10107.855,9755.955,16893.765,-2123.37,5903.73,-2464.02
-3651.21,-23450.535,10112.58,9743.085,16837.335,-2164.14,5896.17,-2471.49
-3630.555,-23413.815,10134.18,9744.705,16781.309999999998,-2210.94,5886.585,-2461.365
-3663.45,-23444.37,10118.565,9752.085,16817.579999999998,-2220.12,5872.995,-2489.985
-3709.98,-23516.37,10071.81,9746.279999999999,16895.07,-2179.395,5853.6449999999995,-2516.7149999999997
-3749.1299999999997,-23548.68,10033.785,9706.635,16873.47,-2133.27,5826.825,-2554.515
-3737.0699999999997,-23530.77,10043.1,9697.77,16839.045,-2154.5099999999998,5804.325,-2555.055
-3739.0049999999997,-23535.27,10038.24,9698.13,16868.655,-2172.5099999999998,5787.9,-2554.02
-3728.79,-23516.37,10051.425,9699.885,16838.145,-2207.295,5772.78,-2550.42
-3705.66,-23486.985,10079.685,9711.945,16747.335,-2253.15,5787.63,-2535.0299999999997
-3725.595,-23508.045,10060.785,9704.295,16783.29,-2216.52,5752.53,-2559.5099999999998
-3767.22,-23561.864999999998,10014.885,9693.585,16892.145,-2169.045,5718.24,-2574.27
-3745.89,-23523.165,10026.945,9675.81,16785.54,-2245.86,5742.45,-2560.455
-3712.455,-23456.7,10074.015,9670.005,16645.815,-2365.38,5738.264999999999,-2556.0899999999997
-3806.055,-23562.315,10018.26,9696.06,16846.829999999998,-2269.395,5705.505,-2639.6549999999997
-3875.1299999999997,-23634.629999999997,9959.445,9682.695,16974.27,-2132.055,5670.99,-2703.5099999999998
-3883.185,-23650.245,9934.65,9649.08,16939.934999999998,-2096.505,5655.375,-2688.795
-3806.595,-23558.129999999997,9983.43,9644.039999999999,16840.71,-2197.2599999999998,5622.12,-2643.435
-3763.7999999999997,-23497.515,10018.935,9622.98,16700.22,-2385.0,5620.545,-2623.14
-3834.81,-23607.315,9953.64,9620.279999999999,16777.934999999998,-2347.065,5648.985,-2655.315
-3880.44,-23647.454999999998,9916.335,9612.045,16857.585,-2195.2799999999997,5632.38,-2690.91
-3844.2599999999998,-23597.64,9934.74,9580.41,16728.12,-2291.805,5612.264999999999,-2658.105
-3790.98,-23542.92,9976.859999999999,9582.705,16585.11,-2452.23,5634.63,-2613.87
-3799.62,-23548.815,9972.72,9571.41,16517.34,-2544.93,5630.535,-2629.08
-3917.205,-23670.585,9909.63,9599.58,16779.6,-2300.58,5594.8949999999995,-2724.615
-4001.85,-23746.545,9852.435,9608.58,17019.63,-2075.67,5543.82,-2811.87
-3994.47,-23750.91,9836.82,9586.395,17019.495,-2081.205,5533.065,-2813.22
-3929.4449999999997,-23695.605,9861.39,9566.955,16913.655,-2171.16,5535.179999999999,-2748.015
-3894.345,-23645.114999999998,9891.99,9557.234999999999,16792.559999999998,-2292.0299999999997,5554.665,-2721.24
-3934.89,-23685.254999999997,9874.935,9559.935,16814.295,-2290.275,5557.545,-2750.58
