ch_0,ch_1,ch_2,ch_3,ch_4,ch_5,ch_6,ch_7
13648.005,-1295.5049999999999,1379.79,-1812.0149999999999,17009.91,-7789.7699999999995,3786.705,15964.289999999999
13648.41,-1294.6499999999999,1379.385,-1814.1299999999999,17001.045,-7793.099999999999,3785.4449999999997,15964.56
13646.25,-1296.405,1377.495,-1817.685,16992.765,-7799.445,3782.8799999999997,15963.39
13644.9,-1297.395,1375.5149999999999,-1820.8799999999999,16983.36,-7806.554999999999,3780.855,15962.849999999999
13643.46,-1299.78,1372.725,-1822.095,16982.28,-7809.12,3778.1549999999997,15961.769999999999
13637.16,-1308.105,1366.155,-1822.095,16991.28,-7803.09,3774.7349999999997,15956.46
13637.34,-1308.735,1365.6599999999999,-1822.59,16988.085,-7805.429999999999,3776.7599999999998,15957.63
13641.074999999999,-1305.45,1368.405,-1822.5449999999998,16984.53,-7815.509999999999,3778.83,15961.005
13640.085,-1307.205,1366.02,-1825.0649999999998,16982.91,-7817.67,3777.8849999999998,15959.564999999999
13635.314999999999,-1312.065,1360.53,-1828.845,16983.989999999998,-7805.745,3772.62,15954.435
13647.42,-1299.825,1372.725,-1816.5149999999999,16997.805,-7783.155,3779.955,15965.46
13643.595,-1304.415,1367.28,-1822.1399999999999,16987.59,-7799.04,3776.67,15962.22
13651.335,-1296.72,1374.435,-1815.2549999999999,16987.23,-7795.844999999999,3781.305,15969.195
13652.595,-1295.055,1375.02,-1816.47,16982.684999999998,-7798.679999999999,3781.7999999999997,15970.275
13644.404999999999,-1303.965,1365.885,-1823.85,16978.77,-7807.545,3775.41,15962.58
13641.885,-1307.79,1362.645,-1822.995,16993.845,-7802.955,3773.9249999999997,15961.41
13647.779999999999,-1301.85,1367.73,-1818.54,16994.835,-7796.61,3779.685,15968.25
13648.14,-1302.705,1367.0549999999998,-1818.945,16986.87,-7802.235,3780.18,15968.925
13645.98,-1306.395,1363.5449999999998,-1822.905,16974.899999999998,-7810.11,3778.1549999999997,15966.585
13638.15,-1314.0449999999998,1355.49,-1833.3899999999999,16966.305,-7815.33,3770.145,15958.8
13650.48,-1301.3999999999999,1368.0449999999998,-1821.87,16991.864999999998,-7796.07,3777.615,15970.545
13654.664999999999,-1296.855,1373.76,-1813.6799999999998,16998.614999999998,-7792.38,3779.595,15974.01
13648.005,-1305.225,1365.885,-1821.4199999999998,16988.579999999998,-7800.57,3776.535,15970.185
13653.045,-1300.5449999999998,1370.205,-1817.1899999999998,16992.09,-7795.575,3780.99,15976.484999999999
13648.545,-1306.395,1363.095,-1824.165,16984.35,-7802.549999999999,3777.2549999999997,15971.984999999999
13646.835,-1308.33,1361.34,-1825.47,16981.02,-7805.655,3775.0049999999997,15970.635
13648.635,-1305.495,1363.635,-1824.345,16980.03,-7805.384999999999,3776.265,15972.119999999999
13651.965,-1301.22,1367.7749999999999,-1822.095,16979.895,-7803.36,3777.975,15975.404999999999
13655.97,-1298.1599999999999,1371.06,-1818.0449999999998,16982.91,-7801.155,3781.575,15980.849999999999
13652.189999999999,-1302.885,1365.345,-1823.625,16975.53,-7810.0199999999995,3779.145,15977.115
13663.664999999999,-1290.33,1378.1699999999998,-1810.215,16991.91,-7799.04,3785.535,15988.005
13655.699999999999,-1298.34,1370.07,-1818.72,16984.755,-7797.554999999999,3778.47,15981.164999999999
13654.89,-1299.195,1367.145,-1824.435,16973.46,-7800.75,3777.705,15980.849999999999
13659.525,-1294.965,1368.45,-1826.9099999999999,16963.965,-7812.764999999999,3778.56,15983.91
13662.494999999999,-1292.6699999999998,1373.355,-1814.3999999999999,16987.545,-7803.855,3780.1349999999998,15987.689999999999
13662.404999999999,-1293.84,1374.12,-1809.54,16995.51,-7809.389999999999,3778.785,15988.904999999999
13656.734999999999,-1302.705,1365.345,-1817.46,16987.995,-7813.71,3780.3599999999997,15987.734999999999
13643.46,-1316.115,1354.0049999999999,-1826.235,16989.03,-7789.23,3770.7749999999996,15974.91
13646.519999999999,-1313.01,1355.985,-1824.705,16987.905,-7781.3099999999995,3770.73,15976.26
13660.605,-1298.8799999999999,1368.315,-1815.3899999999999,16986.239999999998,-7788.735,3781.17,15989.085
13667.31,-1291.635,1374.9299999999998,-1810.08,16987.41,-7788.554999999999,3786.12,15995.744999999999
13656.689999999999,-1302.6599999999999,1364.76,-1817.5049999999999,16995.96,-7792.605,3778.1549999999997,15987.285
13656.779999999999,-1302.12,1364.085,-1818.6299999999999,16992.495,-7794.2699999999995,3778.335,15988.5
13660.785,-1297.665,1367.9099999999999,-1815.885,16989.93,-7793.639999999999,3779.955,15992.279999999999
13667.175,-1290.0149999999999,1375.605,-1812.33,16985.925,-7793.594999999999,3783.87,15998.805
13666.05,-1291.905,1372.995,-1820.115,16965.63,-7807.679999999999,3782.475,15997.59
13660.56,-1298.52,1364.31,-1831.455,16946.1,-7821.99,3777.12,15990.345
13658.805,-1301.625,1361.565,-1823.8049999999998,16977.645,-7804.215,3776.58,15990.795
13649.22,-1312.2,1355.04,-1823.175,16991.64,-7795.844999999999,3769.1549999999997,15982.83
13648.904999999999,-1312.335,1355.985,-1821.87,16996.635,-7800.12,3767.895,15983.775
13656.734999999999,-1306.305,1359.54,-1820.385,16991.82,-7797.465,3777.975,15995.789999999999
13649.265,-1315.53,1349.82,-1830.735,16975.98,-7809.344999999999,3771.81,15989.355
13656.24,-1307.0249999999999,1358.325,-1821.87,16983.27,-7805.025,3774.33,15993.855
13651.47,-1309.365,1356.7949999999998,-1822.2749999999999,16986.239999999998,-7799.355,3769.56,15987.824999999999
13652.46,-1308.555,1356.705,-1824.9299999999998,16981.38,-7801.65,3770.0099999999998,15989.67
13654.8,-1308.0149999999999,1357.695,-1823.175,16981.47,-7801.74,3772.665,15993.765
13658.625,-1305.0,1359.99,-1819.7549999999999,16984.575,-7796.969999999999,3777.8399999999997,15998.67
13649.085,-1314.18,1349.685,-1830.06,16973.64,-7808.264999999999,3769.875,15990.435
13652.234999999999,-1310.625,1353.4199999999998,-1827.3149999999998,16975.98,-7806.105,3770.0099999999998,15993.539999999999
13649.085,-1313.55,1350.495,-1830.06,16972.605,-7809.165,3768.21,15990.615
13659.885,-1301.715,1361.52,-1819.3049999999998,16982.73,-7799.355,3776.085,16001.414999999999
13653.359999999999,-1310.085,1352.115,-1828.08,16973.325,-7807.59,3770.8199999999997,15994.349999999999
13655.88,-1308.0149999999999,1354.77,-1825.47,16974.405,-7806.105,3771.6749999999997,15996.15
13661.595,-1303.02,1360.71,-1819.7549999999999,16979.67,-7800.75,3775.23,16003.755
13660.154999999999,-1304.235,1359.45,-1821.195,16977.555,-7803.224999999999,3773.52,16002.269999999999
13650.525,-1315.125,1348.3799999999999,-1831.5,16967.835,-7813.035,3766.23,15992.685
13653.09,-1312.605,1349.73,-1830.1499999999999,16969.815,-7810.92,3767.535,15995.654999999999
13646.564999999999,-1318.4099999999999,1342.845,-1836.99,16962.975,-7817.3099999999995,3762.6299999999997,15989.76
13648.545,-1316.97,1344.24,-1834.965,16964.46,-7815.6449999999995,3763.89,15991.785
13658.265,-1307.745,1353.825,-1824.9299999999998,16973.505,-7807.365,3770.73,16001.324999999999
13660.38,-1306.7549999999999,1355.31,-1823.76,16972.695,-7807.7699999999995,3772.17,16004.25
13650.885,-1317.87,1343.835,-1834.605,16959.329999999998,-7821.9,3763.2599999999998,15994.529999999999
13657.725,-1310.895,1349.19,-1829.4299999999998,16963.11,-7822.799999999999,3767.58,16001.46
13659.48,-1308.105,1352.655,-1826.5049999999999,16965.045,-7822.62,3769.02,16005.105
13653.045,-1313.235,1348.605,-1830.96,16963.649999999998,-7812.945,3764.9249999999997,16001.685
13644.675,-1321.02,1341.585,-1836.135,16962.704999999998,-7811.73,3757.3199999999997,15992.73
13646.699999999999,-1320.3,1341.7649999999999,-1835.01,16963.965,-7814.25,3760.83,15994.529999999999
13652.324999999999,-1315.575,1346.175,-1830.915,16966.485,-7807.365,3766.3199999999997,16001.865
13653.63,-1314.81,1346.445,-1831.59,16963.559999999998,-7814.384999999999,3766.545,16001.73
13649.265,-1321.11,1340.595,-1837.3049999999998,16958.745,-7821.45,3761.685,15996.644999999999
13660.199999999999,-1310.85,1351.1699999999998,-1824.435,16976.114999999998,-7803.09,3770.5049999999997,16008.029999999999
13658.76,-1311.615,1349.235,-1825.9199999999998,16973.82,-7801.875,3768.075,16007.085
13665.105,-1305.99,1355.1299999999999,-1820.5649999999998,16977.375,-7799.174999999999,3772.17,16013.385
13654.755,-1316.205,1343.835,-1832.6699999999998,16965.045,-7812.855,3765.1949999999997,16004.43
13655.519999999999,-1315.53,1343.1599999999999,-1833.03,16963.559999999998,-7815.105,3764.43,16005.555
13660.335,-1310.715,1346.715,-1830.96,16963.2,-7814.474999999999,3767.355,16010.414999999999
13654.08,-1316.565,1340.46,-1837.665,16953.795,-7822.44,3761.91,16004.295
13652.01,-1319.85,1337.5349999999999,-1839.1499999999999,16953.21,-7821.179999999999,3759.75,16001.955
13650.525,-1321.965,1336.095,-1837.7549999999999,16958.385,-7816.365,3758.58,16001.189999999999
13653.945,-1317.915,1339.6499999999999,-1836.54,16954.2,-7816.995,3761.2799999999997,16005.15
13666.185,-1306.215,1351.305,-1825.965,16962.614999999998,-7807.634999999999,3770.0099999999998,16016.894999999999
13662.765,-1311.3,1346.85,-1826.1899999999998,16976.25,-7804.665,3767.4449999999997,16014.644999999999
13654.305,-1320.7949999999998,1337.085,-1836.99,16956.54,-7815.915,3761.46,16008.255
13651.47,-1323.585,1334.8799999999999,-1840.1399999999999,16947.135,-7819.92,3759.2999999999997,16006.545
13655.07,-1319.58,1337.85,-1836.495,16951.815,-7819.514999999999,3760.1549999999997,16008.345
13654.17,-1321.56,1335.375,-1837.1699999999998,16963.2,-7819.0199999999995,3760.3799999999997,16008.705
13655.16,-1321.3799999999999,1335.4199999999998,-1839.4199999999998,16959.239999999998,-7817.535,3761.1,16010.369999999999
13656.734999999999,-1320.03,1336.5449999999998,-1836.99,16960.68,-7814.429999999999,3761.055,16011.945
13661.685,-1314.945,1341.945,-1831.59,16962.66,-7809.705,3763.2599999999998,16016.265
13656.105,-1319.355,1336.0049999999999,-1838.4299999999998,16951.68,-7816.679999999999,3759.93,16011.539999999999
13667.85,-1307.07,1346.5349999999999,-1829.5649999999998,16959.239999999998,-7809.66,3767.265,16021.8
13669.335,-1305.945,1348.47,-1826.82,16961.265,-7810.965,3767.58,16023.96
13669.425,-1307.565,1347.5249999999999,-1825.56,16964.055,-7810.469999999999,3768.2549999999997,16025.22
13671.585,-1306.485,1347.345,-1825.74,16962.885,-7809.884999999999,3769.47,16027.83
13667.265,-1311.03,1342.53,-1827.945,16968.059999999998,-7805.745,3765.645,16024.23
13662.314999999999,-1315.08,1339.56,-1830.24,16966.934999999998,-7810.875,3760.515,16019.46
13660.965,-1315.44,1339.155,-1832.58,16961.805,-7814.115,3761.5049999999997,16018.92
13659.435,-1319.2649999999999,1335.78,-1833.345,16963.605,-7809.615,3762.99,16019.73
13657.095,-1322.28,1332.405,-1835.1899999999998,16961.805,-7807.995,3762.4049999999997,16018.92
13655.385,-1324.305,1330.02,-1839.24,16955.91,-7813.889999999999,3758.58,16016.355
13661.279999999999,-1318.0049999999999,1336.0049999999999,-1835.0549999999998,16958.745,-7810.875,3761.8199999999997,16021.17
13660.019999999999,-1319.04,1334.475,-1837.35,16955.774999999998,-7813.304999999999,3760.2,16020.135
13666.814999999999,-1311.975,1340.82,-1829.8799999999999,16961.715,-7806.554999999999,3765.42,16028.505
13659.255,-1319.805,1331.955,-1838.79,16952.399999999998,-7815.69,3760.245,16022.97
13661.414999999999,-1318.5449999999998,1332.135,-1839.915,16946.235,-7820.099999999999,3761.595,16025.535
13671.585,-1308.51,1341.855,-1831.095,16952.309999999998,-7820.235,3769.1099999999997,16034.355
13665.824999999999,-1313.1,1337.1299999999999,-1836.1799999999998,16946.145,-7837.2,3764.745,16028.82
13659.885,-1318.4099999999999,1333.08,-1839.0149999999999,16944.57,-7833.78,3758.895,16024.23
13660.064999999999,-1319.445,1334.25,-1834.695,16958.16,-7795.44,3757.3199999999997,16025.22
13668.164999999999,-1310.58,1342.08,-1828.845,16959.149999999998,-7796.295,3762.855,16032.914999999999
13674.779999999999,-1304.415,1346.58,-1825.0649999999998,16960.86,-7809.795,3769.245,16039.349999999999
13668.66,-1311.21,1340.685,-1829.34,16964.954999999998,-7807.59,3764.43,16032.96
13674.914999999999,-1306.395,1345.5449999999998,-1824.57,16968.285,-7793.054999999999,3767.895,16039.484999999999
13673.835,-1308.69,1342.53,-1828.7549999999999,16960.86,-7799.715,3766.185,16038.63
13666.635,-1314.6299999999999,1336.32,-1833.03,16961.175,-7803.045,3760.2,16032.734999999999
13670.685,-1311.21,1339.425,-1830.0149999999999,16957.755,-7803.719999999999,3762.18,16036.74
13669.335,-1312.74,1337.04,-1835.5049999999999,16942.995,-7814.79,3761.1,16034.984999999999
13671.585,-1310.49,1340.19,-1829.61,16953.57,-7808.4,3764.745,16039.89
13664.205,-1320.705,1328.76,-1840.5449999999998,16937.684999999998,-7820.91,3762.3599999999997,16034.58
13673.925,-1310.445,1337.175,-1837.62,16919.46,-7832.429999999999,3765.4649999999997,16042.185
13678.244999999999,-1307.2949999999998,1338.3899999999999,-1840.2749999999999,16927.155,-7835.264999999999,3768.8849999999998,16046.82
13666.005,-1318.0049999999999,1331.325,-1840.725,16952.309999999998,-7835.219999999999,3756.7349999999997,16033.904999999999
13663.484999999999,-1321.605,1330.245,-1832.355,16973.91,-7800.12,3757.14,16035.119999999999
13662.135,-1320.975,1329.345,-1838.205,16949.565,-7795.17,3753.765,16032.555
13673.16,-1308.465,1340.595,-1832.04,16939.53,-7810.0199999999995,3758.1749999999997,16040.564999999999
13663.89,-1318.995,1332.18,-1833.3899999999999,16955.01,-7816.995,3753.045,16033.185
13653.539999999999,-1333.665,1318.32,-1837.08,16980.66,-7799.13,3752.19,16028.775
13657.455,-1327.995,1322.235,-1836.99,16967.204999999998,-7800.03,3753.315,16032.51
13664.475,-1320.03,1327.5449999999998,-1838.34,16955.055,-7811.549999999999,3755.205,16036.785
13670.865,-1315.0349999999999,1332.315,-1833.21,16956.945,-7812.224999999999,3758.805,16042.41
13676.13,-1309.59,1339.11,-1824.7949999999998,16958.565,-7805.16,3765.375,16048.935
13674.195,-1310.2649999999999,1338.435,-1827.225,16959.105,-7805.295,3763.7549999999997,16048.17
13665.779999999999,-1321.605,1325.2949999999998,-1838.385,16961.175,-7805.16,3760.92,16042.59
13670.189999999999,-1317.24,1329.03,-1834.74,16957.89,-7803.36,3762.855,16047.359999999999
13672.845,-1313.415,1332.495,-1832.8049999999998,16954.02,-7806.285,3762.27,16048.845
13669.92,-1316.52,1329.2549999999999,-1836.09,16948.71,-7812.855,3758.355,16045.785
13660.74,-1326.105,1318.86,-1846.71,16938.585,-7825.094999999999,3752.145,16037.01
13659.615,-1326.4199999999998,1319.1299999999999,-1846.7549999999999,16941.735,-7825.139999999999,3749.4449999999997,16035.48
13665.644999999999,-1320.345,1325.385,-1839.33,16949.655,-7811.505,3755.0699999999997,16042.949999999999
13670.1,-1316.8799999999999,1326.915,-1838.8799999999999,16944.03,-7814.5199999999995,3756.1949999999997,16046.73
