ch_0,ch_1,ch_2,ch_3,ch_4,ch_5,ch_6,ch_7
161151.975,-72970.425,-30920.579999999998,-23663.745,-25841.43,-33483.015,-9330.795,277980.02999999997
161218.215,-72977.715,-30931.155,-23674.95,-25849.26,-33488.865,-9335.43,278092.8
161279.595,-72979.965,-30929.805,-23668.785,-25837.469999999998,-33472.89,-9331.065,278207.955
161345.52,-72982.53,-30928.23,-23665.05,-25830.765,-33462.27,-9332.46,278327.16
161406.44999999998,-72983.11499999999,-30927.285,-23666.805,-25831.934999999998,-33463.979999999996,-9332.865,278441.01
161478.27,-72973.75499999999,-30924.629999999997,-23667.344999999998,-25837.469999999998,-33472.755,-9326.43,278556.48
161572.63499999998,-72977.265,-30928.32,-23669.954999999998,-25841.925,-33478.515,-9330.885,278684.235
161666.685,-72980.685,-30924.045,-23662.844999999998,-25837.785,-33475.905,-9336.285,278804.33999999997
161760.24,-72982.89,-30913.065,-23648.85,-25823.34,-33460.83,-9337.23,278919.855
161841.285,-72967.635,-30906.945,-23648.94,-25827.03,-33463.845,-9329.67,279029.83499999996
161908.245,-72964.125,-30912.03,-23660.055,-25839.315,-33476.22,-9330.66,279138.285
161968.995,-72964.75499999999,-30913.965,-23663.024999999998,-25839.765,-33478.155,-9334.35,279244.755
162036.63,-72961.515,-30907.035,-23652.629999999997,-25823.43,-33459.39,-9335.565,279362.79
162110.97,-72967.905,-30915.18,-23658.93,-25826.805,-33456.24,-9333.63,279488.7
162179.595,-72971.235,-30920.579999999998,-23663.745,-25832.114999999998,-33460.335,-9332.369999999999,279610.065
162256.275,-72972.0,-30916.664999999997,-23658.39,-25827.84,-33458.94,-9335.295,279730.44
162345.33,-72976.095,-30918.195,-23657.04,-25828.605,-33460.02,-9338.31,279851.04
162442.845,-72972.045,-30919.905,-23663.204999999998,-25840.575,-33472.979999999996,-9338.94,279973.98
162544.275,-72970.245,-30925.395,-23675.219999999998,-25856.37,-33490.53,-9345.69,280097.37
162624.69,-72974.205,-30927.735,-23683.59,-25864.11,-33497.82,-9342.494999999999,280207.665
162688.32,-72990.98999999999,-30926.43,-23682.96,-25860.735,-33492.555,-9318.555,280313.91
162750.96,-72974.295,-30913.829999999998,-23667.39,-25842.78,-33472.799999999996,-9321.57,280422.58499999996
162817.83,-72955.8,-30901.14,-23650.379999999997,-25820.37,-33449.715,-9329.039999999999,280539.72
162877.22999999998,-72963.765,-30912.344999999998,-23665.05,-25835.85,-33463.755,-9330.435,280651.995
162940.22999999998,-72970.29,-30919.454999999998,-23673.96,-25843.14,-33468.75,-9336.779999999999,280770.57
163007.955,-72964.215,-30913.965,-23669.504999999997,-25842.329999999998,-33468.075,-9337.994999999999,280880.27999999997
163090.08,-72971.73,-30915.36,-23668.379999999997,-25844.805,-33472.125,-9320.039999999999,280993.58999999997
163183.63499999998,-72969.435,-30911.76,-23666.94,-25846.155,-33477.93,-9321.705,281112.885
163289.925,-72961.245,-30904.829999999998,-23657.895,-25833.149999999998,-33465.78,-9331.695,281240.55
163387.53,-72962.28,-30907.44,-23661.27,-25836.39,-33465.555,-9348.21,281367.0
163456.47,-72949.23,-30893.219999999998,-23648.489999999998,-25821.585,-33449.58,-9336.33,281479.185
163513.97999999998,-72961.065,-30903.03,-23658.165,-25828.965,-33455.159999999996,-9320.895,281585.07
163580.985,-72983.205,-30929.625,-23684.67,-25855.425,-33479.82,-9322.47,281701.62
163649.52,-72986.31,-30936.239999999998,-23691.915,-25861.545,-33485.58,-9327.015,281818.8
163714.905,-72986.715,-30932.145,-23686.155,-25853.265,-33477.615,-9331.065,281936.07
163800.44999999998,-72980.415,-30924.495,-23679.27,-25847.325,-33474.284999999996,-9338.85,282062.33999999997
163892.61,-72972.405,-30913.065,-23669.37,-25842.195,-33473.835,-9344.654999999999,282182.265
163983.10499999998,-72958.23,-30899.385,-23659.559999999998,-25837.335,-33472.619999999995,-9341.324999999999,282296.25
164080.305,-72964.395,-30913.065,-23676.975,-25859.789999999997,-33494.67,-9329.535,282415.05
164161.08,-72963.36,-30912.48,-23677.065,-25857.719999999998,-33488.19,-9316.71,282524.355
164218.63499999998,-72953.86499999999,-30901.454999999998,-23666.445,-25843.725,-33469.515,-9315.539999999999,282623.76
164278.53,-72961.605,-30907.44,-23674.77,-25851.914999999997,-33477.705,-9321.57,282733.245
164337.38999999998,-72958.14,-30904.695,-23672.204999999998,-25849.17,-33474.915,-9318.195,282843.40499999997
164400.88499999998,-72961.69499999999,-30913.739999999998,-23684.715,-25861.68,-33487.065,-9322.695,282958.425
164462.31,-72960.66,-30909.465,-23678.774999999998,-25852.59,-33477.345,-9320.31,283071.51
164529.13499999998,-72956.52,-30898.664999999997,-23663.43,-25836.21,-33462.27,-9310.095,283183.245
164612.205,-72954.495,-30898.44,-23664.645,-25843.364999999998,-33472.215,-9310.949999999999,283298.535
164708.46,-72958.455,-30906.27,-23676.795,-25858.17,-33489.315,-9322.695,283421.07
164810.745,-72960.435,-30907.844999999998,-23677.965,-25858.53,-33489.765,-9321.164999999999,283544.505
164896.785,-72963.27,-30910.905,-23680.44,-25859.655,-33488.055,-9315.72,283659.12
164957.805,-72965.34,-30913.649999999998,-23683.59,-25861.454999999998,-33486.84,-9313.965,283759.785
165012.165,-72968.58,-30917.024999999998,-23689.44,-25864.2,-33488.145,-9315.18,283863.42
165075.615,-72966.23999999999,-30916.53,-23691.105,-25864.92,-33489.405,-9322.38,283980.87
165139.695,-72958.905,-30913.289999999997,-23689.8,-25863.57,-33488.415,-9329.085,284097.6
165192.93,-72957.33,-30908.16,-23681.969999999998,-25852.905,-33474.78,-9325.44,284206.095
165268.485,-72965.16,-30905.64,-23676.3,-25847.684999999998,-33471.135,-9312.93,284326.11
165369.82499999998,-72966.825,-30910.77,-23685.75,-25865.37,-33494.58,-9315.63,284457.6
165467.205,-72969.345,-30923.1,-23704.379999999997,-25890.39,-33521.58,-9325.935,284578.11
165559.41,-72973.75499999999,-30927.69,-23710.635,-25896.735,-33527.475,-9349.605,284692.005
165644.145,-72956.06999999999,-30901.14,-23679.18,-25858.215,-33487.875,-9352.845,284804.37
165717.85499999998,-72939.42,-30876.614999999998,-23648.129999999997,-25817.67,-33442.83,-9316.08,284916.33
165783.87,-72953.19,-30902.805,-23679.045,-25852.41,-33475.905,-9296.145,285029.73
165845.61,-72969.345,-30925.8,-23706.495,-25882.335,-33505.29,-9306.09,285141.77999999997
165905.235,-72980.01,-30932.91,-23712.3,-25887.51,-33507.674999999996,-9319.545,285252.48
165957.88499999998,-72968.4,-30913.02,-23686.965,-25858.17,-33477.705,-9326.43,285358.5
166031.055,-72949.095,-30891.51,-23665.454999999998,-25838.235,-33462.765,-9320.13,285474.64499999996
166117.185,-72940.36499999999,-30883.545,-23657.895,-25833.69,-33460.83,-9306.675,285590.25
166206.465,-72950.84999999999,-30894.57,-23671.62,-25848.989999999998,-33474.104999999996,-9302.76,285701.625
166304.16,-72959.67,-30898.17,-23676.975,-25854.48,-33477.84,-9300.42,285821.19
166383.85499999998,-72957.19499999999,-30898.035,-23679.629999999997,-25857.27,-33480.585,-9303.615,285931.305
166451.085,-72949.00499999999,-30901.32,-23687.64,-25867.8,-33492.69,-9306.18,286037.73
166526.235,-72955.53,-30912.614999999998,-23702.895,-25884.899999999998,-33508.305,-9319.994999999999,286157.97
166594.86,-72961.92,-30915.539999999997,-23703.03,-25879.5,-33500.744999999995,-9328.095,286275.95999999996
166655.79,-72964.62,-30913.605,-23697.045,-25867.485,-33487.965,-9330.705,286387.875
166729.68,-72959.08499999999,-30907.664999999997,-23686.515,-25848.945,-33467.04,-9325.71,286511.985
166818.645,-72948.59999999999,-30903.164999999997,-23686.515,-25852.23,-33470.28,-9312.975,286639.64999999997
166926.15,-72951.885,-30904.02,-23691.465,-25865.145,-33486.03,-9308.88,286774.2
167025.96,-72962.86499999999,-30909.69,-23699.565,-25877.295,-33501.869999999995,-9317.43,286891.74
167131.16999999998,-72973.70999999999,-30911.445,-23701.995,-25882.379999999997,-33508.395,-9326.115,287016.57
167226.88499999998,-72960.75,-30905.37,-23693.535,-25871.579999999998,-33495.975,-9326.115,287142.12
167299.695,-72950.895,-30897.585,-23683.68,-25859.655,-33483.465,-9319.68,287248.05
167376.96,-72951.75,-30896.37,-23683.094999999998,-25858.35,-33481.71,-9309.51,287370.99
167453.145,-72962.19,-30913.92,-23706.225,-25882.559999999998,-33503.445,-9304.289999999999,287501.445
167517.04499999998,-72950.58,-30903.48,-23699.79,-25876.395,-33494.895,-9314.55,287615.25
167579.955,-72959.48999999999,-30911.85,-23708.475,-25884.27,-33499.799999999996,-9309.69,287729.235
167664.915,-72960.97499999999,-30909.824999999997,-23706.09,-25881.344999999998,-33498.45,-9313.74,287857.08
167769.945,-72954.62999999999,-30901.77,-23697.585,-25875.765,-33498.765,-9324.225,287992.39499999996
167885.955,-72952.33499999999,-30901.004999999997,-23696.73,-25879.68,-33504.119999999995,-9325.44,288132.20999999996
167995.53,-72954.18,-30900.69,-23694.165,-25876.079999999998,-33499.08,-9322.199999999999,288262.52999999997
168083.595,-72944.955,-30893.85,-23688.45,-25869.239999999998,-33491.924999999996,-9315.18,288379.485
168154.785,-72952.065,-30904.155,-23697.585,-25875.09,-33494.174999999996,-9311.58,288490.185
168223.185,-72957.465,-30910.004999999997,-23701.23,-25874.19,-33489.765,-9320.715,288604.8
168286.005,-72959.715,-30908.835,-23703.12,-25874.774999999998,-33489.045,-9334.664999999999,288715.41
168355.44,-72960.525,-30915.539999999997,-23713.92,-25885.664999999997,-33499.799999999996,-9356.265,288836.82
168423.03,-72958.815,-30916.35,-23719.364999999998,-25894.44,-33511.005,-9353.34,288956.115
168498.04499999998,-72952.245,-30909.195,-23713.92,-25894.664999999997,-33515.325,-9331.109999999999,289069.47
168595.155,-72952.92,-30909.105,-23712.84,-25895.34,-33518.744999999995,-9301.994999999999,289194.39
168706.035,-72955.305,-30898.44,-23695.469999999998,-25873.92,-33494.94,-9290.609999999999,289332.63
168818.22,-72955.34999999999,-30893.085,-23689.395,-25868.43,-33488.28,-9300.465,289465.425
168905.07,-72958.36499999999,-30903.84,-23703.254999999997,-25881.975,-33500.475,-9299.52,289581.12
168969.01499999998,-72952.605,-30902.039999999997,-23702.85,-25880.579999999998,-33497.1,-9295.515,289685.115
169032.41999999998,-72942.165,-30893.579999999998,-23697.855,-25877.835,-33494.354999999996,-9305.595,289794.105
169104.375,-72952.47,-30903.12,-23708.34,-25885.754999999997,-33502.815,-9313.92,289914.885
169166.835,-72956.97,-30910.274999999998,-23714.864999999998,-25890.84,-33504.795,-9309.779999999999,290025.855
169219.755,-72955.845,-30914.504999999997,-23720.67,-25897.635,-33509.88,-9304.605,290128.95
169283.115,-72956.34,-30916.17,-23723.28,-25900.065,-33512.49,-9305.145,290238.66
169364.29499999998,-72944.01,-30903.39,-23711.399999999998,-25890.344999999998,-33506.145,-9316.755,290349.765
169463.97,-72942.61499999999,-30900.375,-23707.079999999998,-25888.77,-33508.17,-9319.14,290472.255
169564.185,-72945.18,-30899.34,-23704.469999999998,-25887.87,-33508.935,-9322.38,290589.255
169652.07,-72951.25499999999,-30903.39,-23707.44,-25887.555,-33506.685,-9327.914999999999,290704.32
169717.94999999998,-72955.62,-30911.175,-23719.41,-25897.725,-33513.615,-9342.045,290813.04
169773.93,-72944.86499999999,-30888.989999999998,-23692.995,-25864.2,-33474.869999999995,-9334.44,290914.605
169838.505,-72949.86,-30884.219999999998,-23686.379999999997,-25853.895,-33461.595,-9302.67,291030.165
169904.97,-72948.33,-30890.34,-23700.195,-25874.504999999997,-33484.409999999996,-9277.244999999999,291148.38
169960.905,-72941.58,-30896.64,-23713.739999999998,-25893.495,-33503.67,-9286.02,291255.12
170021.745,-72925.47,-30881.43,-23695.92,-25876.26,-33489.674999999996,-9292.635,291356.235
170114.085,-72933.705,-30888.495,-23701.454999999998,-25883.73,-33500.52,-9296.01,291478.365
170222.085,-72940.995,-30892.995,-23704.02,-25886.745,-33503.76,-9303.029999999999,291610.98
170320.815,-72943.065,-30892.77,-23703.12,-25884.675,-33502.545,-9302.22,291732.255
170412.84,-72942.435,-30896.055,-23709.645,-25892.1,-33507.765,-9302.85,291855.375
170479.305,-72945.045,-30901.59,-23717.34,-25900.469999999998,-33513.435,-9300.645,291962.07
170538.07499999998,-72951.93,-30907.26,-23723.1,-25902.765,-33512.4,-9300.06,292067.235
170590.275,-72949.635,-30900.42,-23717.43,-25893.45,-33501.42,-9296.145,292171.185
170639.415,-72946.035,-30902.355,-23722.739999999998,-25900.695,-33509.52,-9295.244999999999,292272.3
170689.32,-72938.565,-30901.68,-23726.43,-25906.995,-33515.19,-9295.154999999999,292374.63
170759.97,-72942.66,-30905.504999999997,-23727.78,-25908.704999999998,-33516.765,-9294.705,292489.01999999996
170856.27,-72947.745,-30904.695,-23724.54,-25904.789999999997,-33515.055,-9298.17,292615.425
170957.29499999998,-72942.84,-30897.0,-23715.719999999998,-25896.6,-33508.53,-9298.845,292737.375
171063.9,-72941.58,-30895.695,-23714.864999999998,-25899.254999999997,-33512.49,-9304.74,292864.32
171150.66,-72937.62,-30892.41,-23712.975,-25897.364999999998,-33509.7,-9307.35,292980.87
171210.735,-72926.73,-30882.195,-23705.37,-25889.67,-33499.799999999996,-9299.925,293082.12
171267.21,-72937.485,-30895.245,-23717.969999999998,-25898.219999999998,-33502.815,-9291.15,293187.6
171333.405,-72953.28,-30913.829999999998,-23739.03,-25916.309999999998,-33518.43,-9287.595,293304.06
171394.245,-72942.165,-30895.065,-23717.204999999998,-25891.559999999998,-33496.604999999996,-9295.199999999999,293415.885
171457.47,-72925.515,-30878.594999999998,-23698.395,-25872.93,-33481.395,-9301.815,293530.545
171540.09,-72932.355,-30893.219999999998,-23713.469999999998,-25890.254999999997,-33498.945,-9308.295,293654.51999999996
171635.985,-72939.915,-30897.36,-23719.184999999998,-25897.68,-33505.92,-9317.295,293779.35
171735.435,-72942.25499999999,-30887.684999999998,-23708.295,-25888.995,-33499.17,-9310.68,293903.685
171837.54,-72943.37999999999,-30883.77,-23702.715,-25885.934999999998,-33496.83,-9288.0,294029.73
171934.47,-72939.69,-30890.745,-23713.02,-25898.895,-33509.61,-9297.09,294155.14499999996
172011.41999999998,-72943.965,-30897.045,-23721.254999999997,-25903.17,-33510.015,-9297.404999999999,294271.515
172077.705,-72945.09,-30901.23,-23731.065,-25914.059999999998,-33519.195,-9300.42,294382.305
172138.905,-72950.08499999999,-30911.219999999998,-23746.77,-25930.079999999998,-33534.72,-9324.945,294492.555
172199.88,-72958.14,-30921.074999999997,-23756.445,-25938.675,-33540.975,-9344.609999999999,294605.82
172266.66,-72941.355,-30904.289999999997,-23734.395,-25911.27,-33512.04,-9323.1,294726.64499999996
172333.395,-72921.915,-30880.62,-23705.91,-25878.465,-33480.45,-9290.385,294838.695
172418.625,-72922.455,-30869.91,-23692.725,-25865.954999999998,-33470.415,-9267.705,294952.095
172513.08,-72922.95,-30869.37,-23697.899999999998,-25878.6,-33487.155,-9279.72,295071.48
172597.905,-72928.665,-30874.454999999998,-23704.739999999998,-25889.039999999997,-33496.29,-9272.88,295177.545
172667.38499999998,-72928.485,-30880.98,-23715.719999999998,-25900.92,-33507.18,-9267.164999999999,295276.32
