ch_0,ch_1,ch_2,ch_3,ch_4,ch_5,ch_6,ch_7
3667.9049999999997,-35412.84,-565.29,117.99,10410.255,-17075.745,-1493.865,1003.68
3335.805,-35330.715,-469.97999999999996,104.58,10524.645,-16777.755,-1515.33,784.26
3150.9,-35248.725,-537.345,37.62,10685.115,-16635.195,-1597.32,940.005
3030.8849999999998,-35126.369999999995,-653.76,-30.599999999999998,10523.52,-16934.445,-1608.975,936.045
2872.665,-34953.975,-591.615,112.5,10804.41,-16939.17,-1482.165,402.075
2905.56,-34746.705,-413.775,294.885,11078.595,-16758.989999999998,-1541.655,236.51999999999998
2940.75,-34548.435,-117.72,141.21,11173.635,-16775.37,-1961.1899999999998,701.55
2706.5699999999997,-34422.255,-468.63,-206.23499999999999,11255.939999999999,-16811.864999999998,-1962.495,954.99
2389.455,-34316.46,-749.025,98.46,11644.289999999999,-16480.395,-1827.99,632.8349999999999
1999.35,-34199.415,-634.365,348.79499999999996,11872.125,-16253.73,-1799.7749999999999,251.01
2664.45,-34063.515,-611.37,248.715,11613.33,-16432.515,-1919.115,344.34
3539.6549999999997,-33910.424999999996,-312.075,350.865,11350.439999999999,-16452.899999999998,-2007.585,488.29499999999996
3878.595,-33757.38,-60.794999999999995,521.775,10988.955,-16560.27,-1971.495,469.395
3978.045,-33594.345,-152.73,182.655,10463.31,-17183.385,-2203.92,886.68
3987.495,-33401.43,-247.36499999999998,-287.64,10050.255,-17617.905,-2613.96,1325.745
3830.805,-33189.57,-253.62,-487.26,9527.22,-17656.875,-2531.88,1312.245
3626.0099999999998,-32983.695,-264.105,-487.08,9514.44,-17629.695,-2327.4449999999997,1036.215
3473.055,-32792.715,33.21,-270.495,9820.935,-17563.005,-2446.02,802.62
3306.285,-32635.53,274.32,-242.14499999999998,9897.525,-17796.149999999998,-2442.555,812.2049999999999
3010.545,-32533.155,87.255,-321.615,10232.19,-17912.114999999998,-2456.955,780.0749999999999
2222.415,-32447.07,-2.475,-241.47,11114.82,-17163.36,-2462.4449999999997,396.71999999999997
1303.83,-32412.69,-24.075,-181.755,11759.715,-16302.824999999999,-2345.4,-113.03999999999999
1355.31,-32360.715,-187.29,-28.575,11975.039999999999,-16002.99,-2328.48,-106.96499999999999
2158.4249999999997,-32259.105,-467.37,440.505,12067.064999999999,-16231.23,-2433.735,291.555
3130.335,-32070.195,-279.495,781.785,11602.71,-16952.94,-2408.265,522.36
3553.4249999999997,-31815.045,250.155,572.0849999999999,10622.565,-17875.934999999998,-2472.0299999999997,538.38
3623.1299999999997,-31594.545,498.73499999999996,106.695,10056.69,-18247.005,-2670.0299999999997,632.0699999999999
3286.08,-31427.64,445.5,-286.78499999999997,9877.185,-18071.594999999998,-2849.895,875.79
2971.845,-31299.21,346.68,-555.345,10115.91,-17748.45,-2887.38,905.535
2621.52,-31203.855,327.87,-188.19,11222.595,-16870.005,-2704.095,504.18
2734.875,-31138.245,71.325,393.65999999999997,11972.43,-16110.539999999999,-2732.85,264.51
2934.6749999999997,-31063.364999999998,79.83,391.77,11603.52,-16366.68,-2830.365,393.47999999999996
2284.875,-30968.414999999997,313.60499999999996,193.85999999999999,11284.199999999999,-16788.645,-2824.83,246.105
1789.245,-30841.515,549.765,149.94,11315.52,-16878.195,-2822.31,56.114999999999995
2147.4,-30726.27,290.295,34.92,11288.25,-16880.265,-2785.14,219.285
2929.725,-30621.735,-86.49,-1.53,11111.535,-16955.28,-2739.69,595.35
3758.7599999999998,-30433.454999999998,48.644999999999996,-6.93,10711.484999999999,-17275.14,-3037.095,867.8249999999999
4016.8799999999997,-30217.094999999998,426.825,-99.36,10503.27,-17492.22,-3172.5899999999997,975.375
3680.46,-30046.545,662.985,-88.60499999999999,10530.225,-17436.78,-3120.345,815.895
3093.525,-29932.469999999998,739.2149999999999,-241.515,10391.49,-17397.405,-2973.87,488.205
2657.61,-29855.16,692.73,-275.805,10487.654999999999,-17263.26,-2902.77,254.295
2676.96,-29830.364999999998,354.015,6.569999999999999,10828.395,-16941.375,-2866.5899999999997,254.295
2953.08,-29753.235,398.025,147.06,10575.225,-17041.86,-2714.04,422.19
3292.47,-29615.715,627.435,30.555,9809.55,-17248.68,-2796.12,577.305
3510.27,-29427.434999999998,840.78,52.875,9598.904999999999,-17241.03,-3238.785,568.935
3492.99,-29240.1,914.4449999999999,-191.83499999999998,9857.654999999999,-17374.545,-3407.535,739.4399999999999
3242.745,-29125.53,638.28,-204.66,10411.154999999999,-17440.92,-3326.7599999999998,929.6999999999999
2441.3849999999998,-29043.315,327.28499999999997,-122.895,11031.795,-17378.684999999998,-3140.73,655.425
1846.1699999999998,-28969.469999999998,196.33499999999998,-80.82,11517.029999999999,-17065.305,-2904.75,95.31
2410.56,-28848.96,366.885,130.85999999999999,11299.5,-16863.795,-2920.23,127.89
3211.605,-28684.17,790.38,389.385,11035.35,-16943.625,-3178.98,536.265
3483.4049999999997,-28577.295,894.78,181.70999999999998,10745.01,-17345.52,-3264.48,771.66
3206.9249999999997,-28501.469999999998,713.3399999999999,-125.145,10499.085,-17509.545,-3142.2599999999998,611.055
3066.8399999999997,-28393.559999999998,738.27,-79.695,9814.904999999999,-17326.395,-2866.9049999999997,141.12
2982.15,-28231.469999999998,848.43,-291.69,9265.005,-17399.07,-2787.75,73.98
2968.65,-28051.425,931.9499999999999,-653.265,9281.52,-17491.905,-3176.595,534.105
2681.055,-27916.02,693.855,-832.365,9928.26,-17678.43,-3478.275,686.43
2080.395,-27830.114999999998,567.3149999999999,-459.315,11003.984999999999,-17561.745,-3297.7799999999997,267.03
1934.595,-27744.21,564.525,150.21,11707.38,-16919.415,-3139.515,-158.98499999999999
1820.52,-27643.77,902.475,744.975,11585.475,-16636.995,-3107.475,-364.22999999999996
1553.76,-27503.504999999997,1421.01,669.285,11294.145,-16972.875,-3351.915,-255.55499999999998
1792.62,-27451.754999999997,1109.655,260.82,11160.404999999999,-17581.005,-3441.42,266.805
2642.265,-27422.01,537.12,123.47999999999999,11256.119999999999,-17855.37,-3291.795,612.405
3453.2549999999997,-27335.61,383.49,308.745,11463.66,-17681.895,-3386.3849999999998,754.1999999999999
3807.495,-27136.71,639.045,306.675,11179.395,-17487.045,-3591.6299999999997,884.16
3812.04,-26928.765,789.795,45.135,10771.109999999999,-17414.28,-3631.995,914.805
3626.415,-26772.254999999997,746.505,-160.245,10300.949999999999,-17074.26,-3559.9049999999997,684.0
3506.85,-26633.565,832.77,-270.135,9651.285,-17042.265,-3428.64,445.5
3212.865,-26536.41,963.2249999999999,-245.565,9600.435,-17242.829999999998,-3463.47,443.115
2798.955,-26412.84,1327.5449999999998,-280.17,9701.01,-17676.405,-3670.9649999999997,575.235
2664.27,-26300.925,1451.97,-461.29499999999996,9865.26,-18440.055,-3481.74,680.355
2210.4,-26284.094999999998,984.105,-370.16999999999996,11001.06,-18097.965,-3194.325,372.87
1611.27,-26337.645,418.77,37.485,11733.435,-17114.715,-3194.415,175.725
2081.745,-26301.69,96.03,308.115,11361.375,-16829.73,-3215.43,140.355
3080.295,-26103.87,571.59,557.055,10726.83,-16842.69,-3199.5899999999997,75.42
3757.8599999999997,-25866.135,1090.8,558.135,10338.975,-16898.895,-3305.43,370.215
3929.85,-25683.93,1207.395,11.879999999999999,10081.845,-17368.875,-3526.9649999999997,766.4399999999999
3461.805,-25584.614999999998,1044.27,-285.12,10282.095,-17680.68,-3369.375,314.235
3054.105,-25496.594999999998,1010.25,-2.565,10945.125,-17224.965,-3344.085,-26.145
2975.9849999999997,-25401.015,1025.865,88.965,11126.43,-16971.255,-3734.8199999999997,510.615
2932.6949999999997,-25316.28,1106.9099999999999,-91.8,10581.57,-17495.055,-3869.055,923.31
2295.54,-25279.469999999998,997.8299999999999,-341.41499999999996,10822.949999999999,-17202.059999999998,-3334.365,455.265
1921.23,-25249.815,779.895,-239.04,11430.314999999999,-16609.41,-3164.625,58.635
2116.935,-25200.54,445.85999999999996,43.47,11621.789999999999,-16561.17,-3195.99,150.435
2393.2799999999997,-25118.37,358.965,319.72499999999997,11225.205,-16867.755,-3286.2149999999997,333.53999999999996
2606.49,-24940.8,693.045,248.535,10737.494999999999,-17255.295,-3414.06,396.945
2679.8849999999998,-24726.059999999998,1067.175,-7.245,10509.21,-17426.925,-3393.0,382.815
2401.38,-24564.329999999998,1340.01,61.785,10520.505,-17398.44,-3342.645,296.55
2369.61,-24448.23,1466.235,117.49499999999999,10595.07,-17321.715,-3275.415,255.06
2269.665,-24392.745,1281.96,137.16,10705.68,-17158.59,-3242.6099999999997,197.23499999999999
2296.485,-24348.555,1006.74,166.995,10823.445,-17037.63,-3244.68,156.15
2572.38,-24290.28,913.185,183.285,10881.135,-17095.725,-3395.0699999999997,166.095
2906.955,-24229.215,840.285,53.55,10622.565,-17478.855,-3445.56,370.305
3348.99,-24125.309999999998,928.035,7.245,10395.855,-17858.79,-3432.7799999999997,543.465
3527.595,-23981.129999999997,1073.205,96.615,10382.13,-17903.925,-3504.555,681.3
3486.7799999999997,-23828.715,1214.235,130.095,10309.5,-17792.19,-3603.7349999999997,733.365
3381.345,-23694.254999999997,1287.315,-54.945,10202.984999999999,-17613.0,-3637.44,699.255
3135.7349999999997,-23621.985,1028.1599999999999,-241.01999999999998,10013.31,-17539.02,-3513.15,532.62
2723.85,-23566.77,935.055,-242.1,10018.619999999999,-17442.18,-3396.105,284.31
2465.685,-23464.53,1084.725,-148.815,10321.109999999999,-17293.77,-3404.3849999999998,94.005
2510.5499999999997,-23345.01,1318.32,-23.805,10631.52,-17369.864999999998,-3596.7149999999997,138.285
2444.22,-23317.695,1224.18,-25.83,10948.545,-17468.82,-3565.2149999999997,285.47999999999996
2638.2149999999997,-23359.23,676.755,30.195,10878.795,-17168.13,-3403.5299999999997,461.25
3356.91,-23268.465,782.595,138.51,9947.97,-17068.905,-3237.39,272.565
3870.27,-23059.485,1332.45,152.595,9050.445,-17295.885,-3373.47,301.22999999999996
3891.87,-22867.065,1648.1699999999998,-141.165,8845.02,-17999.28,-3787.1099999999997,966.3299999999999
3312.1349999999998,-22767.39,1448.9099999999999,-471.91499999999996,9361.98,-18920.88,-3611.835,1140.345
2306.52,-22714.335,1224.72,-216.855,10974.555,-18526.77,-3422.745,447.615
1622.52,-22681.125,915.48,376.91999999999996,12364.109999999999,-17239.14,-3357.225,-59.489999999999995
2000.8799999999999,-22617.495,852.03,437.35499999999996,11949.029999999999,-16908.84,-3360.915,5.3999999999999995
2640.24,-22535.594999999998,810.81,329.4,11066.939999999999,-17048.43,-3246.48,206.73
2982.645,-22452.75,1028.97,224.45999999999998,10496.16,-17129.61,-3057.165,84.195
2965.6349999999998,-22355.684999999998,1268.82,85.905,10293.66,-17134.695,-3212.46,72.315
2585.205,-22249.98,1362.51,-124.47,10506.69,-17062.92,-3675.15,383.085
2140.065,-22156.11,1163.8799999999999,-190.665,10718.46,-17227.755,-3720.6,503.505
2190.5099999999998,-22044.69,970.1999999999999,30.419999999999998,10898.82,-17236.755,-3465.4049999999997,226.845
2565.6749999999997,-21921.03,1095.345,275.445,10815.885,-17104.815,-3371.4449999999997,133.65
2982.42,-21759.39,1268.6399999999999,225.09,10635.705,-17244.045,-3482.91,375.84
3144.555,-21636.945,1311.12,-19.755,10437.21,-17567.1,-3596.4449999999997,685.62
3032.37,-21573.855,1291.5,68.13,10695.06,-17555.579999999998,-3533.1299999999997,626.4
2778.8399999999997,-21528.899999999998,1246.095,269.145,11039.984999999999,-17307.09,-3461.355,366.705
2672.8199999999997,-21454.29,1357.155,313.245,11095.785,-17287.29,-3581.865,306.405
2609.775,-21390.03,1337.085,154.125,10903.635,-17364.645,-3493.62,402.885
2734.47,-21345.165,1093.905,94.905,10903.05,-17219.835,-3379.5899999999997,462.91499999999996
2877.795,-21253.725,860.0849999999999,202.5,10982.205,-17081.864999999998,-3484.08,456.34499999999997
2720.6099999999997,-21104.19,1020.915,282.015,10741.185,-17079.93,-3520.665,333.315
2403.99,-20960.28,1293.3,135.945,10435.859999999999,-17140.274999999998,-3407.265,162.81
2493.4049999999997,-20849.715,1281.645,-64.30499999999999,10210.815,-17376.84,-3291.5699999999997,318.06
2936.52,-20750.715,1260.495,-74.97,10223.055,-17670.78,-3305.115,595.17
3045.1949999999997,-20666.61,1273.86,98.685,10593.225,-17857.844999999998,-3428.5049999999997,553.905
2844.27,-20598.12,1233.54,164.385,10963.035,-17631.63,-3469.185,233.82
2798.91,-20552.265,1148.31,125.00999999999999,10906.56,-17424.585,-3452.265,160.335
2887.605,-20488.815,1298.655,285.34499999999997,10838.295,-17321.309999999998,-3589.6949999999997,319.77
2710.575,-20410.605,1439.82,437.31,10890.855,-17167.454999999998,-3631.6349999999998,429.34499999999997
2577.915,-20299.815,1443.645,281.61,10703.97,-17147.34,-3422.43,436.815
2683.71,-20194.245,1207.485,46.934999999999995,10493.234999999999,-17219.88,-3293.8199999999997,418.54499999999996
2800.2149999999997,-20087.594999999998,1082.115,-54.989999999999995,10441.08,-17320.23,-3394.71,436.455
2951.37,-19974.329999999998,1153.08,31.32,10480.59,-17454.915,-3444.8399999999997,472.005
3024.18,-19861.649999999998,1407.78,148.36499999999998,10383.48,-17611.29,-3418.92,335.295
3023.505,-19750.68,1608.21,218.60999999999999,10264.365,-17598.329999999998,-3447.18,116.72999999999999
3029.94,-19669.184999999998,1601.145,235.98,10284.93,-17517.375,-3598.875,366.705
2925.585,-19662.84,1382.1299999999999,61.695,10559.88,-17436.015,-3542.535,702.27
2790.1349999999998,-19666.665,1163.79,44.1,10549.484999999999,-17410.23,-3293.73,556.65
2563.56,-19613.43,1158.48,82.8,10480.455,-17234.64,-3209.4,249.12
2544.255,-19493.594999999998,1218.465,53.82,10355.805,-17132.265,-3389.58,298.17
2791.575,-19346.265,1453.95,114.52499999999999,10051.65,-17311.5,-3442.8599999999997,486.18
3079.395,-19216.305,1554.12,429.255,10025.279999999999,-17602.065,-3336.345,460.935
3239.145,-19101.78,1615.905,442.26,10323.494999999999,-17689.545,-3414.915,512.415
3262.8599999999997,-19013.579999999998,1661.2649999999999,161.37,10224.09,-18105.84,-3619.62,718.6949999999999
2938.185,-18962.415,1552.5,-59.625,10395.765,-18231.39,-3473.0099999999998,567.045
