ch_0,ch_1,ch_2,ch_3,ch_4,ch_5,ch_6,ch_7
-10194.84,-45185.13,-7661.5199999999995,-41557.59,-21729.42,-10145.025,-5596.605,6138.09
-10194.705,-45183.78,-7658.37,-41555.25,-21724.695,-10137.375,-5610.33,6135.165
-10185.84,-45174.645,-7648.514999999999,-41543.235,-21708.27,-10131.39,-5609.16,6144.525
-10192.14,-45184.814999999995,-7661.07,-41560.02,-21731.715,-10172.789999999999,-5603.49,6141.285
-10193.49,-45188.549999999996,-7666.74,-41571.63,-21756.105,-10171.26,-5603.04,6140.5199999999995
-10192.365,-45186.39,-7659.179999999999,-41556.645,-21737.43,-10159.515,-5607.224999999999,6139.53
-10180.44,-45173.295,-7643.924999999999,-41538.104999999996,-21715.065,-10142.234999999999,-5602.005,6150.15
-10183.365,-45175.994999999995,-7649.82,-41544.314999999995,-21723.254999999997,-10148.58,-5604.165,6147.63
-10183.904999999999,-45180.18,-7654.32,-41547.42,-21722.67,-10143.27,-5606.594999999999,6146.1449999999995
-10191.465,-45192.78,-7666.785,-41557.77,-21726.585,-10131.074999999999,-5625.45,6139.485
-10197.045,-45202.095,-7677.585,-41570.1,-21741.795,-10141.695,-5655.69,6133.86
-10175.039999999999,-45183.555,-7664.355,-41567.354999999996,-21768.93,-10239.119999999999,-5630.804999999999,6158.385
-10185.164999999999,-45188.64,-7664.264999999999,-41560.424999999996,-21742.245,-10195.83,-5585.8949999999995,6150.599999999999
-10192.23,-45192.825,-7668.63,-41565.284999999996,-21723.885,-10149.84,-5602.23,6139.62
-10169.82,-45171.99,-7649.28,-41547.195,-21696.885,-10112.49,-5607.045,6158.655
-10159.335,-45165.24,-7644.15,-41545.979999999996,-21728.655,-10149.615,-5575.23,6173.955
-10181.07,-45186.479999999996,-7657.785,-41545.979999999996,-21733.92,-10166.31,-5584.094999999999,6155.82
-10192.77,-45200.295,-7672.365,-41558.22,-21722.579999999998,-10151.19,-5600.295,6144.48
-10174.68,-45182.205,-7661.07,-41563.845,-21755.204999999998,-10172.789999999999,-5612.8949999999995,6158.7
-10169.595,-45171.27,-7645.815,-41549.76,-21749.129999999997,-10145.88,-5651.505,6154.469999999999
-10165.635,-45173.564999999995,-7650.224999999999,-41548.545,-21732.795,-10157.805,-5667.84,6157.44
-10175.67,-45186.615,-7660.755,-41553.18,-21736.665,-10190.565,-5629.23,6153.75
-10168.38,-45177.615,-7651.71,-41553.045,-21745.98,-10216.44,-5592.6449999999995,6160.86
-10172.789999999999,-45184.634999999995,-7655.985,-41550.75,-21733.02,-10227.33,-5577.12,6165.63
-10198.845,-45209.115,-7673.355,-41555.07,-21728.295,-10162.845,-5569.83,6145.11
-10209.375,-45222.39,-7689.735,-41565.645,-21734.19,-10150.38,-5576.8949999999995,6138.495
-10201.59,-45214.064999999995,-7677.405,-41552.01,-21712.5,-10139.4,-5587.11,6140.429999999999
-10206.315,-45219.645,-7684.605,-41562.045,-21723.165,-10137.375,-5598.045,6133.455
-10197.18,-45214.92,-7685.37,-41569.155,-21741.434999999998,-10154.07,-5596.0199999999995,6143.849999999999
-10200.105,-45219.24,-7688.88,-41566.545,-21734.954999999998,-10159.785,-5605.335,6139.485
-10193.805,-45212.715,-7682.625,-41557.095,-21721.094999999998,-10144.8,-5597.639999999999,6145.92
-10192.815,-45213.165,-7685.46,-41561.595,-21727.26,-10152.63,-5601.42,6145.469999999999
-10180.17,-45202.409999999996,-7676.37,-41555.25,-21723.614999999998,-10151.414999999999,-5595.615,6158.16
-10180.17,-45202.994999999995,-7675.83,-41551.965,-21715.245,-10142.865,-5596.38,6158.565
-10181.654999999999,-45204.795,-7677.315,-41550.795,-21706.065,-10133.82,-5603.13,6154.38
-10183.725,-45208.979999999996,-7684.695,-41560.38,-21720.555,-10151.73,-5623.83,6152.985
-10167.39,-45195.299999999996,-7674.299999999999,-41559.255,-21747.78,-10201.77,-5604.12,6170.804999999999
-10181.43,-45206.865,-7678.62,-41556.33,-21738.105,-10205.414999999999,-5606.505,6155.01
-10192.455,-45219.6,-7687.53,-41560.83,-21727.754999999997,-10165.23,-5603.8949999999995,6145.155
-10186.065,-45213.119999999995,-7681.679999999999,-41558.445,-21725.325,-10150.92,-5613.75,6150.285
-10192.05,-45218.61,-7685.099999999999,-41560.965,-21721.905,-10137.015,-5613.344999999999,6146.82
-10199.565,-45228.555,-7693.469999999999,-41568.525,-21727.26,-10140.255,-5605.11,6140.025
-10193.175,-45222.84,-7688.79,-41566.545,-21729.6,-10151.64,-5613.84,6144.389999999999
-10192.095,-45222.75,-7689.78,-41570.82,-21744.315,-10193.535,-5610.87,6146.73
-10184.085,-45213.299999999996,-7678.08,-41557.77,-21724.739999999998,-10163.475,-5606.1449999999995,6154.335
-10178.775,-45207.54,-7670.88,-41548.905,-21714.39,-10149.119999999999,-5605.065,6159.105
-10173.285,-45201.735,-7663.005,-41535.494999999995,-21697.379999999997,-10133.369999999999,-5606.955,6162.12
-10183.68,-45217.17,-7681.32,-41554.439999999995,-21714.84,-10133.414999999999,-5605.605,6156.315
-10182.375,-45217.305,-7684.83,-41558.354999999996,-21727.305,-10160.1,-5601.69,6159.105
-10192.815,-45226.619999999995,-7693.2,-41562.765,-21728.52,-10161.27,-5610.69,6147.99
-10198.215,-45233.055,-7699.59,-41565.689999999995,-21720.555,-10134.315,-5616.764999999999,6143.58
-10191.465,-45228.915,-7697.295,-41563.215,-21725.055,-10142.01,-5613.615,6151.32
-10179.9,-45218.07,-7687.98,-41556.915,-21734.055,-10173.015,-5618.745,6160.094999999999
-10171.08,-45206.865,-7673.759999999999,-41535.135,-21704.355,-10154.654999999999,-5658.929999999999,6162.615
-10174.14,-45213.525,-7684.065,-41546.52,-21708.899999999998,-10182.285,-5657.8949999999995,6162.885
-10191.06,-45238.455,-7716.69,-41588.955,-21732.795,-10172.295,-5616.63,6154.2
-10182.734999999999,-45230.4,-7711.0199999999995,-41588.955,-21734.504999999997,-10164.375,-5594.49,6161.8949999999995
-10190.115,-45235.17,-7714.799999999999,-41596.02,-21788.91,-10228.815,-5565.375,6157.889999999999
-10200.869999999999,-45238.814999999995,-7703.594999999999,-41556.465,-21744.225,-10185.48,-5607.719999999999,6139.304999999999
-10192.005,-45234.72,-7703.955,-41558.805,-21729.6,-10152.18,-5605.245,6149.969999999999
-10200.105,-45247.814999999995,-7724.25,-41589.9,-21764.52,-10162.35,-5600.969999999999,6146.235
-10187.865,-45239.939999999995,-7723.259999999999,-41601.104999999996,-21791.655,-10171.664999999999,-5639.49,6157.844999999999
-10170.63,-45224.145,-7709.715,-41589.405,-21796.379999999997,-10240.425,-5674.905,6169.32
-10180.08,-45229.229999999996,-7705.665,-41560.244999999995,-21754.665,-10265.76,-5592.33,6161.445
-10196.955,-45234.81,-7698.33,-41521.455,-21666.78,-10106.1,-5569.965,6142.23
-10198.08,-45246.24,-7717.41,-41550.885,-21703.545,-10131.345,-5574.0599999999995,6150.42
-10190.34,-45244.575,-7719.84,-41559.119999999995,-21719.114999999998,-10144.529999999999,-5577.3,6160.41
-10187.955,-45241.83,-7720.11,-41560.695,-21721.635,-10146.375,-5589.36,6158.61
-10185.3,-45237.104999999996,-7718.715,-41561.1,-21726.765,-10162.035,-5602.455,6157.98
-10176.75,-45223.064999999995,-7703.594999999999,-41545.439999999995,-21727.665,-10191.105,-5628.78,6158.16
-10178.73,-45222.93,-7702.065,-41537.835,-21703.68,-10153.755,-5623.74,6153.57
-10194.21,-45253.619999999995,-7742.07,-41586.93,-21728.295,-10131.84,-5609.655,6155.099999999999
-10186.83,-45257.085,-7753.679999999999,-41611.229999999996,-21776.445,-10187.19,-5611.32,6169.455
-10200.914999999999,-45257.49,-7738.74,-41567.76,-21730.68,-10145.25,-5613.795,6148.9349999999995
-10194.615,-45249.119999999995,-7730.549999999999,-41563.26,-21755.475,-10223.145,-5594.58,6152.67
-10192.77,-45249.659999999996,-7733.07,-41561.909999999996,-21731.219999999998,-10168.38,-5613.615,6152.445
-10191.33,-45247.725,-7733.205,-41560.38,-21732.614999999998,-10160.369999999999,-5600.07,6153.929999999999
-10201.14,-45258.705,-7742.7,-41567.895,-21737.565,-10169.775,-5598.2699999999995,6145.29
-10192.14,-45248.625,-7731.945,-41553.945,-21713.085,-10137.105,-5609.205,6153.48
-10176.57,-45235.17,-7721.505,-41547.869999999995,-21726.27,-10173.555,-5623.965,6164.955
-10176.074999999999,-45236.79,-7723.9349999999995,-41547.51,-21723.93,-10156.77,-5625.224999999999,6166.44
-10197.449999999999,-45260.685,-7748.639999999999,-41568.39,-21729.465,-10146.33,-5605.11,6150.915
-10183.59,-45247.229999999996,-7737.795,-41560.515,-21725.37,-10183.994999999999,-5596.065,6164.01
-10194.345,-45255.33,-7744.86,-41566.545,-21734.73,-10173.015,-5603.58,6151.094999999999
-10186.02,-45251.865,-7744.905,-41568.03,-21738.78,-10180.89,-5603.58,6163.245
-10191.734999999999,-45257.895,-7748.054999999999,-41567.445,-21743.504999999997,-10167.074999999999,-5591.474999999999,6156.9
-10181.115,-45243.81,-7730.19,-41542.56,-21711.375,-10123.875,-5606.325,6162.974999999999
-10173.6,-45239.445,-7728.795,-41548.77,-21728.07,-10161.72,-5601.78,6171.03
-10184.895,-45253.979999999996,-7747.065,-41573.52,-21760.695,-10210.545,-5584.23,6166.62
-10192.455,-45260.28,-7749.09,-41562.494999999995,-21735.45,-10180.664999999999,-5595.57,6158.295
-10196.505,-45264.645,-7748.91,-41548.32,-21700.53,-10142.865,-5606.19,6151.635
-10200.645,-45269.009999999995,-7755.705,-41561.415,-21719.16,-10153.664999999999,-5611.635,6146.099999999999
-10197.27,-45266.985,-7755.165,-41561.505,-21723.885,-10161.675,-5613.075,6149.565
-10188.99,-45259.74,-7749.945,-41555.295,-21718.53,-10159.065,-5612.8949999999995,6156.224999999999
-10191.555,-45264.015,-7753.545,-41558.939999999995,-21724.2,-10167.345,-5615.28,6153.885
-10193.58,-45265.994999999995,-7753.32,-41556.869999999995,-21720.239999999998,-10162.574999999999,-5619.465,6153.21
-10188.27,-45263.475,-7753.679999999999,-41556.51,-21709.754999999997,-10140.255,-5611.95,6161.04
-10196.82,-45275.625,-7768.575,-41572.305,-21717.225,-10133.19,-5611.005,6157.3949999999995
-10184.49,-45265.86,-7764.705,-41581.215,-21750.254999999997,-10184.58,-5616.495,6165.405
-10172.025,-45247.229999999996,-7744.005,-41560.47,-21746.385,-10216.664999999999,-5646.014999999999,6164.6849999999995
-10163.925,-45236.43,-7730.73,-41533.875,-21709.53,-10151.73,-5675.804999999999,6166.304999999999
-10181.07,-45257.354999999996,-7750.304999999999,-41540.67,-21710.835,-10153.89,-5630.264999999999,6160.905
-10199.43,-45281.564999999995,-7775.6849999999995,-41568.03,-21743.28,-10198.305,-5585.4,6155.1449999999995
-10199.565,-45282.689999999995,-7775.639999999999,-41564.34,-21734.325,-10195.515,-5596.695,6156.179999999999
-10198.215,-45278.64,-7771.905,-41560.064999999995,-21718.079999999998,-10150.875,-5598.719999999999,6152.3099999999995
-10186.38,-45272.115,-7769.429999999999,-41560.92,-21722.399999999998,-10158.164999999999,-5598.9,6164.37
-10176.75,-45261.9,-7757.955,-41546.97,-21710.879999999997,-10166.49,-5604.165,6170.445
-10185.255,-45273.555,-7772.8949999999995,-41563.125,-21723.48,-10167.074999999999,-5612.04,6163.695
-10202.67,-45292.68,-7793.955,-41586.435,-21745.215,-10177.02,-5614.0199999999995,6148.44
-10200.24,-45288.99,-7789.139999999999,-41580.81,-21743.19,-10188.09,-5614.83,6149.61
-10183.815,-45273.42,-7773.929999999999,-41562.585,-21723.75,-10172.025,-5611.275,6162.344999999999
-10189.305,-45281.025,-7780.634999999999,-41567.22,-21724.155,-10158.75,-5603.985,6161.985
-10196.865,-45287.865,-7786.44,-41570.189999999995,-21726.09,-10160.505,-5612.535,6153.03
-10191.69,-45281.97,-7782.48,-41567.895,-21726.225,-10164.06,-5616.09,6156.135
-10185.435,-45275.085,-7775.28,-41559.615,-21720.69,-10161.99,-5614.0199999999995,6161.355
-10189.17,-45282.42,-7782.389999999999,-41564.97,-21721.77,-10159.785,-5614.514999999999,6160.005
-10178.055,-45274.32,-7777.08,-41562.854999999996,-21712.004999999997,-10138.5,-5614.74,6170.085
-10187.73,-45286.965,-7791.795,-41581.845,-21716.82,-10138.949999999999,-5647.23,6159.0599999999995
-10177.83,-45276.525,-7781.355,-41574.869999999995,-21721.094999999998,-10187.46,-5699.969999999999,6162.885
-10144.17,-45247.049999999996,-7758.54,-41560.92,-21762.629999999997,-10288.845,-5644.62,6198.4349999999995
-10166.49,-45269.505,-7775.594999999999,-41566.14,-21779.055,-10268.595,-5562.405,6185.61
-10195.605,-45298.619999999995,-7796.07,-41571.314999999995,-21731.625,-10132.965,-5567.535,6163.0199999999995
-10187.73,-45293.49,-7793.1449999999995,-41570.685,-21722.399999999998,-10144.755,-5568.03,6173.415
-10181.43,-45287.28,-7789.7699999999995,-41571.045,-21727.934999999998,-10155.42,-5600.115,6171.84
-10173.195,-45277.244999999995,-7779.465,-41557.68,-21725.28,-10164.285,-5648.535,6170.625
-10139.22,-45243.405,-7745.94,-41526.63,-21718.035,-10212.57,-5636.88,6199.38
-10160.73,-45256.185,-7748.099999999999,-41513.49,-21672.945,-10116.404999999999,-5557.455,6184.9349999999995
-10183.32,-45289.305,-7787.835,-41559.21,-21712.184999999998,-10121.265,-5551.425,6174.36
-10186.065,-45295.83,-7798.995,-41576.805,-21737.43,-10156.904999999999,-5575.005,6170.8949999999995
-10177.02,-45283.814999999995,-7788.554999999999,-41573.115,-21748.05,-10173.24,-5587.83,6175.71
-10166.58,-45265.814999999995,-7766.37,-41548.814999999995,-21728.7,-10166.76,-5602.05,6174.945
-10172.295,-45274.5,-7773.12,-41543.64,-21707.28,-10149.66,-5595.929999999999,6173.325
-10185.795,-45289.17,-7782.03,-41537.07,-21687.48,-10143.675,-5606.01,6161.76
-10179.225,-45288.945,-7784.639999999999,-41546.295,-21705.3,-10154.16,-5606.955,6169.139999999999
-10168.695,-45280.89,-7774.605,-41536.665,-21694.184999999998,-10136.699999999999,-5601.915,6179.8949999999995
-10172.07,-45288.81,-7782.12,-41544.945,-21700.98,-10135.619999999999,-5613.84,6180.84
-10154.565,-45270.9,-7767.09,-41534.865,-21700.44,-10157.445,-5642.955,6192.179999999999
-10162.8,-45278.82,-7774.965,-41544.09,-21712.23,-10157.31,-5612.355,6185.655
-10181.34,-45299.07,-7794.2699999999995,-41559.615,-21730.77,-10170.539999999999,-5575.7699999999995,6173.6849999999995
-10190.25,-45308.07,-7797.24,-41547.33,-21700.665,-10146.33,-5603.804999999999,6162.344999999999
-10183.994999999999,-45301.68,-7789.634999999999,-41537.79,-21677.489999999998,-10132.244999999999,-5606.955,6165.045
-10182.51,-45311.67,-7809.75,-41574.33,-21720.87,-10154.52,-5585.175,6175.485
-10180.035,-45309.104999999996,-7807.139999999999,-41571.99,-21728.43,-10157.31,-5592.465,6175.08
-10173.824999999999,-45304.155,-7800.299999999999,-41564.115,-21732.57,-10181.07,-5595.929999999999,6180.57
-10169.414999999999,-45294.795,-7786.485,-41548.59,-21713.219999999998,-10169.414999999999,-5599.349999999999,6182.235
-10176.975,-45296.955,-7785.99,-41543.82,-21697.155,-10143.315,-5604.03,6174.179999999999
-10166.895,-45291.555,-7784.46,-41542.02,-21704.04,-10143.63,-5603.219999999999,6181.11
-10166.265,-45295.74,-7788.24,-41537.159999999996,-21698.684999999998,-10143.18,-5612.175,6180.48
-10169.64,-45301.095,-7796.7,-41547.78,-21696.165,-10127.43,-5630.94,6176.025
-10159.065,-45294.39,-7794.719999999999,-41556.375,-21720.239999999998,-10158.795,-5651.235,6186.465
