ch_0,ch_1,ch_2,ch_3,ch_4,ch_5,ch_6,ch_7
-23463.855,-32245.92,-2172.06,-7257.554999999999,-8020.259999999999,-22058.774999999998,-4006.125,224.28
-23569.92,-32353.289999999997,-2228.625,-7183.844999999999,-7769.025,-21733.739999999998,-3951.1349999999998,160.065
-23531.579999999998,-32383.8,-2370.24,-7251.12,-7695.764999999999,-21566.16,-3932.055,162.26999999999998
-23380.605,-32259.239999999998,-2437.47,-7364.34,-7755.165,-21553.559999999998,-4078.17,179.23499999999999
-23172.21,-32169.465,-2432.565,-7429.995,-7886.79,-21669.704999999998,-4170.195,299.07
-23165.415,-32278.23,-2457.4049999999997,-7442.37,-7999.0199999999995,-21794.94,-4162.95,359.775
-23297.715,-32368.14,-2501.19,-7457.4,-7969.23,-21687.03,-3971.79,348.75
-23392.844999999998,-32422.995,-2561.67,-7438.094999999999,-7874.37,-21514.41,-3848.04,300.69
-23343.39,-32341.5,-2462.7149999999997,-7322.445,-7780.049999999999,-21416.805,-3923.37,254.88
-23112.45,-32173.92,-2360.61,-7346.205,-7890.705,-21553.695,-4052.3399999999997,327.42
-22880.204999999998,-32026.23,-2319.705,-7436.295,-8058.42,-21730.905,-4135.139999999999,426.78
-22741.739999999998,-31943.655,-2279.475,-7491.6449999999995,-8201.744999999999,-21866.355,-4152.105,516.8249999999999
-22738.32,-31912.469999999998,-2205.99,-7500.465,-8278.695,-21936.825,-4170.915,536.895
-22850.504999999997,-31969.079999999998,-2235.69,-7463.924999999999,-8234.055,-21865.184999999998,-4182.345,472.185
-22939.829999999998,-31956.48,-2186.46,-7407.63,-8167.634999999999,-21806.19,-4173.795,398.96999999999997
-23101.2,-31940.414999999997,-2087.235,-7309.17,-8062.65,-21721.635,-4070.205,282.195
-23315.175,-32018.265,-2118.06,-7197.66,-7831.259999999999,-21416.489999999998,-3945.375,143.91
-23373.36,-32117.085,-2170.2599999999998,-7178.3099999999995,-7727.49,-21227.67,-3903.705,112.905
-23174.325,-32082.254999999997,-2133.045,-7192.349999999999,-7770.6449999999995,-21269.25,-3950.145,243.765
-22939.739999999998,-32006.295,-2134.08,-7224.344999999999,-7876.53,-21464.055,-4009.5,369.71999999999997
-22712.67,-31775.805,-1982.52,-7207.92,-8045.775,-21736.035,-4096.17,458.82
-22571.01,-31532.67,-1790.6399999999999,-7142.3099999999995,-8205.84,-21965.445,-4104.63,487.395
-22476.87,-31345.379999999997,-1646.955,-7060.094999999999,-8216.955,-21980.34,-4306.5,431.23499999999996
-22366.844999999998,-31268.879999999997,-1600.02,-7090.065,-8272.529999999999,-22192.92,-4326.03,547.245
-22532.129999999997,-31512.96,-1805.1299999999999,-7152.57,-8122.59,-22189.364999999998,-3971.565,622.53
-22933.035,-31749.074999999997,-1879.245,-6984.0,-7644.014999999999,-21659.895,-3835.71,390.645
-23321.7,-32015.385,-1950.165,-6778.53,-7148.79,-21004.92,-3690.81,182.51999999999998
-23490.135,-32115.645,-1911.78,-6691.905,-7029.63,-20808.899999999998,-3612.24,99.585
-23427.27,-32080.454999999998,-1827.45,-6636.0599999999995,-6993.855,-20747.565,-3584.6549999999997,114.795
-23146.155,-32024.61,-1929.24,-6741.63,-7105.905,-20837.475,-3546.495,290.115
-22888.53,-31873.815,-1975.725,-6798.78,-7184.115,-20928.96,-3630.06,412.28999999999996
-22638.645,-31671.945,-1935.6299999999999,-6885.99,-7340.94,-21112.065,-3732.795,570.105
-22393.665,-31513.32,-1848.24,-6991.425,-7587.36,-21389.265,-3752.865,769.635
-22277.204999999998,-31509.09,-1821.5549999999998,-7013.655,-7764.389999999999,-21583.89,-3745.395,861.7049999999999
-22194.945,-31433.175,-1836.8999999999999,-7068.6449999999995,-7864.92,-21679.515,-3736.98,894.555
-22284.405,-31368.329999999998,-1764.36,-7042.7699999999995,-7825.7699999999995,-21630.555,-3742.2,817.74
-22590.629999999997,-31464.36,-1693.53,-6875.1449999999995,-7560.09,-21311.325,-3616.9649999999997,641.655
-22923.315,-31709.25,-1747.26,-6747.3,-7263.179999999999,-20877.704999999998,-3453.975,460.66499999999996
-23047.02,-31872.42,-1798.02,-6700.995,-7146.36,-20675.295,-3355.4249999999997,390.555
-23102.64,-31948.515,-1832.22,-6643.304999999999,-7033.455,-20500.38,-3356.415,332.82
-23270.04,-31887.36,-1721.52,-6510.69,-6890.985,-20320.695,-3354.5699999999997,147.51
-23233.77,-31779.405,-1574.235,-6360.255,-6798.87,-20229.66,-3408.705,87.57
-22847.85,-31575.645,-1514.97,-6394.5,-6911.37,-20364.344999999998,-3614.9849999999997,243.405
-22380.885,-31399.739999999998,-1535.04,-6589.53,-7203.375,-20665.395,-3726.495,565.11
-21971.565,-31224.195,-1647.585,-6859.304999999999,-7583.804999999999,-21048.165,-3776.49,906.615
-21756.645,-31088.385,-1636.5149999999999,-7032.825,-7927.29,-21462.255,-3706.2,1136.07
-21759.614999999998,-31048.245,-1592.46,-7088.355,-8095.32,-21696.344999999998,-3551.4449999999997,1205.1
-21935.52,-31153.905,-1592.73,-7009.469999999999,-7941.42,-21537.855,-3519.27,1090.485
-22199.625,-31367.565,-1674.6299999999999,-6873.615,-7597.304999999999,-21089.475,-3546.54,901.4399999999999
-22350.87,-31360.995,-1605.0149999999999,-6774.21,-7525.035,-20992.14,-3505.5,765.81
-22431.645,-31298.67,-1505.7,-6668.505,-7508.25,-20943.675,-3395.115,698.175
-22396.364999999998,-31194.765,-1424.745,-6559.83,-7442.099999999999,-20862.315,-3499.875,666.9
-22275.495,-31077.495,-1352.1599999999999,-6534.495,-7400.88,-20930.13,-3584.205,734.13
-22182.03,-31126.364999999998,-1342.62,-6562.844999999999,-7399.844999999999,-21078.945,-3415.995,871.9649999999999
-22261.995,-31306.77,-1411.695,-6524.054999999999,-7228.844999999999,-20860.559999999998,-3336.795,849.3299999999999
-22231.62,-31296.555,-1461.465,-6561.945,-7237.44,-20767.905,-3341.9249999999997,841.23
-22055.715,-31084.065,-1346.22,-6571.17,-7410.87,-20980.44,-3330.18,943.9649999999999
-21997.844999999998,-30985.559999999998,-1281.69,-6583.815,-7501.59,-21155.805,-3286.44,986.5799999999999
-22052.565,-31033.44,-1284.615,-6525.2699999999995,-7367.715,-21061.395,-3351.7799999999997,942.435
-22149.719999999998,-31145.129999999997,-1342.1699999999998,-6445.44,-7136.594999999999,-20819.204999999998,-3323.97,924.615
-22357.035,-31315.725,-1445.175,-6413.804999999999,-6925.86,-20524.454999999998,-3129.5699999999997,851.805
-22589.864999999998,-31393.305,-1401.7949999999998,-6276.24,-6714.2699999999995,-20233.44,-3066.8399999999997,694.8
-22715.594999999998,-31437.989999999998,-1359.1799999999998,-6169.59,-6574.59,-20044.844999999998,-3028.095,586.935
-22758.66,-31438.485,-1301.895,-6049.215,-6420.24,-19863.54,-3019.455,511.74
-22615.695,-31295.295,-1218.735,-6038.865,-6438.15,-19856.655,-3074.805,555.165
-22416.975,-31087.395,-1081.7549999999999,-6057.0,-6526.9349999999995,-19932.93,-3097.35,685.0799999999999
-22235.579999999998,-31018.905,-1083.465,-6122.925,-6650.19,-20050.875,-3091.23,829.26
-22033.305,-31020.12,-1178.145,-6204.195,-6771.105,-20177.235,-3105.855,971.5949999999999
-21931.515,-31017.87,-1202.355,-6278.264999999999,-6895.889999999999,-20298.915,-3093.2999999999997,1069.02
-21947.895,-30935.699999999997,-1164.555,-6314.445,-6977.34,-20375.37,-3093.39,1079.28
-21937.32,-30819.329999999998,-1119.195,-6337.62,-7024.59,-20388.42,-3074.04,1098.585
-22025.385,-30979.125,-1179.855,-6317.415,-6952.815,-20256.66,-3028.23,1085.58
-22175.325,-31144.274999999998,-1276.5149999999999,-6299.82,-6841.575,-20086.335,-2962.89,1002.015
-22259.969999999998,-31202.73,-1274.895,-6206.04,-6700.32,-19928.835,-2920.14,936.9
-22181.129999999997,-31148.91,-1220.895,-6181.65,-6700.995,-19949.895,-2958.48,947.16
-21935.925,-30933.989999999998,-1135.665,-6210.315,-6808.86,-20096.055,-3082.41,1020.645
-21722.715,-30757.68,-1069.56,-6174.2699999999995,-6895.44,-20234.745,-3290.535,1068.165
-21590.594999999998,-30605.039999999997,-907.515,-6198.885,-7085.565,-20482.469999999998,-3432.42,1142.595
-21612.239999999998,-30633.12,-932.76,-6316.605,-7232.58,-20629.44,-3240.3599999999997,1224.495
-21753.18,-30745.754999999997,-1036.8,-6342.21,-7187.49,-20463.66,-3121.1549999999997,1134.135
-21852.54,-30702.914999999997,-938.295,-6191.054999999999,-7086.554999999999,-20321.73,-3209.085,988.02
-21832.965,-30650.67,-862.74,-6107.219999999999,-7069.005,-20390.805,-3271.14,1004.535
-21859.92,-30773.879999999997,-916.785,-6143.625,-7061.849999999999,-20489.985,-3085.065,1130.5349999999999
-22045.545,-31016.789999999997,-1109.97,-6235.65,-6829.065,-20141.235,-2941.02,1100.1599999999999
-22045.23,-31085.82,-1254.465,-6288.929999999999,-6750.54,-19991.295,-2942.64,1099.305
-22031.37,-31080.87,-1269.0449999999998,-6263.6849999999995,-6775.29,-20000.565,-2928.915,1102.23
-21977.774999999998,-31018.23,-1244.205,-6285.87,-6870.735,-20082.915,-2922.075,1134.315
-21870.18,-30918.96,-1197.54,-6299.73,-6938.19,-20205.27,-3008.745,1179.495
-21781.305,-30801.465,-1082.8799999999999,-6287.085,-6982.74,-20364.344999999998,-3094.4249999999997,1191.24
-21807.315,-30776.399999999998,-999.4499999999999,-6270.4349999999995,-6957.54,-20372.265,-3086.595,1169.235
-21975.975,-30831.164999999997,-993.4649999999999,-6212.79,-6863.445,-20250.09,-3003.0299999999997,1101.24
-22218.704999999998,-30940.605,-1010.4749999999999,-6116.985,-6751.17,-20133.855,-2859.975,981.405
-22498.379999999997,-31018.454999999998,-928.4399999999999,-5892.12,-6474.78,-19888.38,-2805.12,760.185
-22681.62,-31198.59,-971.9549999999999,-5744.025,-6124.679999999999,-19459.934999999998,-2811.1949999999997,614.745
-22523.399999999998,-31296.914999999997,-1100.0249999999999,-5768.865,-6052.635,-19318.95,-2786.22,758.97
-22129.695,-31155.93,-1153.485,-5898.599999999999,-6255.855,-19558.934999999998,-2890.44,999.5849999999999
-21716.82,-30914.28,-1038.24,-5960.88,-6502.679999999999,-19921.635,-3133.845,1225.485
-21477.96,-30755.969999999998,-1011.06,-6111.495,-6799.545,-20269.305,-3133.2149999999997,1386.6299999999999
-21292.38,-30522.465,-939.555,-6351.12,-7179.48,-20623.454999999998,-2974.545,1547.73
-21197.565,-30416.129999999997,-876.6899999999999,-6406.695,-7402.95,-20822.895,-2933.415,1626.3
-21256.29,-30423.015,-844.515,-6316.29,-7399.665,-20862.045,-3010.3199999999997,1577.1599999999999
-21337.829999999998,-30454.829999999998,-862.65,-6294.6449999999995,-7339.005,-20847.69,-2986.38,1542.5549999999998
-21489.93,-30589.92,-1005.39,-6271.29,-7101.719999999999,-20653.335,-2898.99,1463.5349999999999
-21848.129999999997,-30936.96,-1290.33,-6224.535,-6699.554999999999,-20054.024999999998,-2852.2349999999997,1258.74
-22081.545,-31017.465,-1156.05,-6097.455,-6596.91,-19843.785,-2864.43,1086.03
-22098.735,-30977.19,-1019.52,-6000.389999999999,-6552.179999999999,-19784.34,-2853.315,1050.345
-22049.235,-30938.94,-954.81,-5959.755,-6550.065,-19749.645,-2848.3199999999997,1041.795
-21941.415,-30803.895,-810.99,-5937.48,-6656.8949999999995,-19891.035,-2956.23,1006.11
-21715.065,-30618.989999999998,-758.5649999999999,-5932.844999999999,-6798.105,-20152.079999999998,-3045.645,1118.79
-21562.515,-30574.125,-802.395,-6012.315,-6913.9349999999995,-20335.454999999998,-2875.8599999999997,1311.5249999999999
-21609.135,-30670.515,-883.8449999999999,-6096.33,-6875.415,-20219.085,-2711.52,1359.315
-21646.44,-30688.425,-822.375,-6049.665,-6796.125,-20123.55,-2790.63,1272.105
-21640.905,-30674.024999999998,-829.53,-5986.71,-6653.16,-19966.14,-2912.67,1196.28
-21635.055,-30647.969999999998,-829.62,-5938.065,-6602.759999999999,-19917.405,-2925.54,1202.1299999999999
-21653.684999999998,-30670.289999999997,-824.0849999999999,-5897.429999999999,-6562.304999999999,-19897.469999999998,-2797.38,1227.69
-21702.329999999998,-30683.699999999997,-791.91,-5844.735,-6486.57,-19837.305,-2780.64,1195.245
-21808.035,-30735.0,-789.7049999999999,-5803.514999999999,-6407.099999999999,-19727.594999999998,-2793.42,1135.7549999999999
-21990.015,-30828.285,-831.9599999999999,-5820.57,-6396.21,-19649.114999999998,-2753.8199999999997,1044.54
-22116.96,-30844.89,-816.615,-5836.7699999999995,-6408.405,-19610.864999999998,-2690.775,978.885
-22085.55,-30847.364999999998,-837.225,-5843.745,-6382.304999999999,-19545.344999999998,-2638.98,998.235
-22000.094999999998,-30783.735,-826.4699999999999,-5807.385,-6384.375,-19533.78,-2703.555,979.02
-21859.335,-30555.315,-646.3349999999999,-5680.53,-6378.075,-19643.805,-2937.7799999999997,951.39
-21631.905,-30466.215,-563.175,-5708.88,-6468.075,-19864.755,-2966.94,1119.24
-21618.719999999998,-30613.545,-704.2049999999999,-5807.745,-6482.925,-19870.875,-2855.745,1245.87
-21774.015,-30828.735,-878.805,-5893.155,-6435.54,-19698.03,-2741.22,1243.53
-21750.344999999998,-30860.324999999997,-973.62,-5975.865,-6473.79,-19647.809999999998,-2702.3399999999997,1282.77
-21623.355,-30826.44,-1007.055,-6016.545,-6592.455,-19774.305,-2721.825,1341.945
-21498.344999999998,-30690.135,-880.3349999999999,-6018.03,-6755.04,-20005.38,-2841.48,1370.79
-21450.915,-30570.39,-810.4499999999999,-6058.755,-6879.465,-20179.89,-2889.4049999999997,1399.5449999999998
-21445.515,-30536.414999999997,-824.895,-6101.235,-6932.295,-20230.559999999998,-2850.345,1436.355
-21624.885,-30699.719999999998,-957.915,-6142.815,-6870.195,-20111.219999999998,-2752.065,1381.05
-21839.805,-30946.77,-1060.56,-6103.035,-6679.755,-19859.265,-2693.025,1276.83
-21946.274999999998,-31051.035,-1040.58,-5980.545,-6525.9,-19702.89,-2717.955,1179.6299999999999
-21955.094999999998,-30976.739999999998,-945.405,-5914.035,-6488.955,-19683.495,-2800.125,1097.28
-21783.555,-30709.664999999997,-775.98,-5931.135,-6608.34,-19852.38,-2978.415,1112.355
-21590.82,-30536.324999999997,-742.995,-5981.94,-6750.09,-20038.68,-3037.005,1197.72
-21480.165,-30474.18,-754.605,-6046.425,-6833.07,-20135.204999999998,-3046.14,1298.835
-21507.84,-30601.079999999998,-846.9,-6086.7,-6834.0599999999995,-20139.524999999998,-3011.04,1354.0049999999999
-21584.79,-30764.34,-943.1999999999999,-6118.695,-6882.12,-20203.11,-2890.98,1355.31
-21673.35,-30735.539999999997,-894.1949999999999,-6069.24,-6835.86,-20184.84,-2934.315,1258.9199999999998
-21713.175,-30658.59,-826.74,-6038.46,-6792.525,-20168.1,-2911.005,1210.05
-21828.465,-30755.699999999997,-852.8399999999999,-5965.38,-6652.9349999999995,-20038.05,-2831.1749999999997,1162.395
-21879.855,-30774.285,-869.49,-5931.8099999999995,-6589.035,-19987.425,-2767.0499999999997,1130.985
-21848.219999999998,-30633.614999999998,-696.24,-5861.295,-6684.344999999999,-20167.92,-2818.08,1110.375
-21819.42,-30509.864999999998,-570.06,-5803.29,-6722.505,-20271.015,-2920.545,1078.7849999999999
-21733.695,-30511.844999999998,-681.03,-5881.724999999999,-6689.7,-20261.024999999998,-2917.575,1179.405
-21751.29,-30670.02,-763.1999999999999,-5905.26,-6566.804999999999,-20135.25,-2794.5899999999997,1250.55
-21802.545,-30893.309999999998,-912.3299999999999,-5934.42,-6428.79,-19926.855,-2782.89,1267.11
-21640.32,-30817.125,-911.655,-5980.139999999999,-6590.565,-20101.005,-2784.645,1355.94
-21480.165,-30627.765,-868.23,-6055.785,-6802.695,-20357.594999999998,-2838.7799999999997,1402.3799999999999
