ch_0,ch_1,ch_2,ch_3,ch_4,ch_5,ch_6,ch_7
-10430.279999999999,-49328.595,-20053.125,-42712.02,-23092.245,-11291.939999999999,-6602.355,6133.95
-10045.664999999999,-48992.13,-19700.325,-42521.04,-23013.855,-11227.23,-6883.83,6089.085
-9854.055,-48436.83,-19489.364999999998,-42589.845,-23153.895,-11320.83,-7059.915,6177.51
-9789.885,-48353.4,-19546.829999999998,-42769.215,-23547.87,-11633.355,-7019.6849999999995,6331.7699999999995
-9997.695,-48791.295,-19747.485,-42892.965,-23730.39,-11640.105,-6852.24,6451.11
-10030.68,-48950.369999999995,-19805.85,-42952.635,-23640.344999999998,-11290.59,-6831.134999999999,6438.014999999999
-10041.705,-48927.42,-19819.98,-43267.814999999995,-23974.605,-11534.85,-6364.53,6417.764999999999
-10119.645,-48902.895,-19961.46,-43599.555,-24049.035,-11540.744999999999,-6167.79,6318.495
-10144.89,-48957.255,-20083.95,-43796.159999999996,-24164.46,-11221.92,-6429.42,6238.035
-10141.199999999999,-48918.78,-20119.005,-43774.064999999995,-24372.989999999998,-11337.345,-6711.075,6170.355
-10150.425,-48798.765,-20071.71,-43547.265,-24432.66,-11823.885,-6597.224999999999,6150.465
-10307.475,-48792.645,-20110.86,-43242.03,-24264.315,-12248.189999999999,-6290.235,6073.155
-10521.045,-48981.915,-20277.135,-42726.104999999996,-23591.34,-12159.765,-6218.91,5969.115
-10591.065,-49207.32,-20394.405,-42499.665,-23231.34,-11570.805,-6396.4349999999995,5886.36
-10643.445,-49369.005,-20265.255,-42453.54,-23017.545,-11057.039999999999,-6563.25,5843.474999999999
-10659.15,-49286.79,-20032.065,-42558.165,-23014.17,-11038.949999999999,-6460.2,5861.79
-10482.795,-49181.534999999996,-20015.415,-42804.63,-23281.515,-11511.135,-6184.53,5974.83
-10501.244999999999,-48932.189999999995,-20022.66,-42674.85,-23004.719999999998,-11652.074999999999,-6196.545,5942.969999999999
-10609.199999999999,-48870.045,-19947.239999999998,-42402.735,-22625.774999999998,-11453.4,-6411.465,5872.41
-10515.195,-48834.54,-19888.065,-42433.92,-22619.114999999998,-11405.16,-6496.469999999999,5877.135
-10528.965,-48669.03,-19887.434999999998,-42467.265,-22622.985,-11368.395,-6437.655,5817.375
-10644.975,-48729.689999999995,-20039.355,-42505.92,-22660.425,-11362.904999999999,-6319.08,5823.719999999999
-10700.505,-48980.115,-20228.67,-42547.455,-22736.024999999998,-11320.47,-6221.565,5912.73
-10580.13,-49197.869999999995,-20317.32,-42581.159999999996,-22779.18,-11245.095,-6262.83,6029.325
-10476.63,-49435.064999999995,-20172.78,-42608.385,-22842.989999999998,-11220.75,-6312.51,6069.0599999999995
-10345.725,-49409.909999999996,-20217.78,-42667.965,-22967.28,-11291.85,-6332.085,6070.23
-10408.59,-49238.909999999996,-20324.969999999998,-42642.99,-22958.28,-11262.779999999999,-6370.425,5959.844999999999
-10582.83,-49188.869999999995,-20361.915,-42631.2,-22907.114999999998,-11205.27,-6412.7699999999995,5807.16
-10674.494999999999,-48938.625,-20174.219999999998,-42557.58,-22787.91,-11091.779999999999,-6444.63,5599.844999999999
-10597.77,-48841.965,-20354.445,-42585.119999999995,-22686.39,-10963.664999999999,-6435.764999999999,5630.175
-10598.22,-48873.195,-20504.565,-42676.064999999995,-22812.03,-11058.48,-6429.599999999999,5770.755
-10688.4,-49071.869999999995,-20217.329999999998,-42670.35,-23014.89,-11259.314999999999,-6400.98,5924.385
-10583.64,-49225.455,-19858.05,-42636.33,-23103.405,-11358.18,-6422.445,6023.25
-10380.869999999999,-48863.97,-19878.434999999998,-42652.665,-23075.594999999998,-11318.805,-6427.53,6077.835
-10297.98,-48852.945,-20137.05,-42586.604999999996,-22903.469999999998,-11118.824999999999,-6385.05,6014.16
-10470.33,-49050.674999999996,-20091.465,-42475.14,-22788.405,-10986.39,-6391.844999999999,5559.165
-10710.359999999999,-48347.28,-19522.62,-42292.665,-22584.555,-10766.97,-6523.155,5143.1849999999995
-10907.955,-48109.68,-19479.87,-42129.585,-22253.445,-10362.465,-6390.045,5163.345
-10786.41,-48541.994999999995,-19848.375,-42228.45,-22402.395,-10525.949999999999,-6328.304999999999,5595.615
-10405.305,-49589.595,-20158.2,-42496.784999999996,-22935.285,-11150.595,-6303.24,6269.715
-9979.065,-49584.33,-20096.55,-42706.619999999995,-23384.745,-11634.39,-6409.259999999999,6560.009999999999
-9724.904999999999,-49296.015,-20142.719999999998,-42941.25,-23610.915,-11803.5,-6622.74,6650.054999999999
-9902.744999999999,-49123.665,-20068.245,-43054.515,-23647.995,-11784.24,-6886.3949999999995,6432.12
-10128.779999999999,-48971.07,-20024.055,-43142.445,-23650.02,-11741.085,-6895.17,6160.32
-10370.97,-48993.75,-20157.614999999998,-43145.775,-23561.1,-11676.51,-6674.49,6031.17
-10552.32,-49078.215,-20164.68,-42968.07,-23394.69,-11605.455,-6555.599999999999,5978.16
-10592.955,-49018.95,-20066.895,-42805.619999999995,-23239.079999999998,-11468.385,-6605.054999999999,5933.7
-10491.48,-48755.655,-19895.355,-42825.869999999995,-23253.795,-11451.914999999999,-6565.905,5875.425
-10474.289999999999,-48469.32,-19826.954999999998,-42820.604999999996,-23231.204999999998,-11406.689999999999,-6447.465,5849.594999999999
-10448.685,-48927.284999999996,-19988.415,-42669.765,-22966.515,-11050.92,-6397.74,5933.655
-10329.39,-49442.805,-20161.305,-42581.97,-22901.129999999997,-11028.869999999999,-6387.84,6061.905
-10338.75,-49154.49,-19919.43,-42681.284999999996,-23146.739999999998,-11341.664999999999,-6438.78,6073.155
-10301.895,-49168.125,-19948.77,-42808.86,-23243.309999999998,-11413.529999999999,-6425.955,6087.96
-10212.21,-49002.57,-20033.415,-42937.604999999996,-23294.204999999998,-11250.27,-6621.57,6112.9349999999995
-10006.289999999999,-49010.895,-20061.225,-43076.34,-23457.69,-11094.615,-6914.5199999999995,6229.53
-9892.215,-48909.555,-19856.07,-43213.229999999996,-23748.48,-11296.89,-6963.75,6296.67
-9908.775,-48631.59,-19768.815,-43386.255,-24061.545,-11607.255,-6660.36,6270.615
-10166.13,-48697.02,-19856.655,-43360.064999999995,-24073.92,-11737.215,-6369.389999999999,6091.11
-10418.94,-48795.705,-19794.555,-42812.01,-23577.21,-11538.314999999999,-6571.125,5941.98
-10485.99,-49105.305,-19793.745,-42452.28,-23059.395,-11202.119999999999,-6753.105,5982.389999999999
-10436.625,-49344.525,-19948.815,-42711.615,-23275.305,-11387.43,-6553.08,6059.025
-10548.225,-49339.125,-20003.489999999998,-42895.08,-23553.27,-11595.914999999999,-6272.775,5938.29
-10635.93,-49328.64,-20036.655,-42930.18,-23665.995,-11704.14,-6207.705,5854.1849999999995
-10589.175,-49231.89,-20053.215,-42943.14,-23626.26,-11604.105,-6293.5199999999995,5895.224999999999
-10547.82,-49266.45,-20106.36,-42876.54,-23442.254999999997,-11367.9,-6371.639999999999,5908.905
-10463.984999999999,-49269.375,-20096.91,-42832.305,-23295.915,-11176.965,-6603.4349999999995,5847.75
-10299.105,-48996.9,-19930.005,-42904.89,-23290.605,-11033.865,-6964.155,5848.11
-10139.265,-48839.354999999996,-19816.965,-43044.75,-23326.695,-11066.31,-7057.755,5961.42
-10000.484999999999,-48681.674999999996,-19769.355,-43300.215,-23669.504999999997,-11549.97,-6794.73,6107.3099999999995
-10185.57,-48740.49,-19757.25,-43042.814999999995,-23575.23,-12031.74,-6368.715,6071.3099999999995
-10730.97,-49104.585,-19931.76,-42394.545,-22696.92,-11512.215,-6151.545,5757.66
-10968.66,-49128.795,-19952.235,-42197.22,-22255.29,-10921.185,-6200.1449999999995,5592.51
-10910.07,-49067.865,-19887.795,-42359.715,-22448.34,-10923.255,-6273.9,5651.6849999999995
-10753.695,-49091.085,-19918.079999999998,-42487.29,-22654.98,-11025.09,-6324.075,5711.13
-10624.095,-49094.595,-19960.155,-42519.645,-22733.145,-11007.675,-6332.849999999999,5745.33
-10558.35,-48996.45,-19942.965,-42566.445,-22850.864999999998,-11079.945,-6341.67,5878.889999999999
-10556.414999999999,-49136.67,-19983.69,-42646.455,-22976.864999999998,-11201.13,-6358.59,5988.554999999999
-10397.07,-49702.77,-20222.46,-42746.22,-23012.055,-11194.064999999999,-6375.285,6097.1849999999995
-10374.795,-49395.42,-20117.88,-42758.505,-22971.375,-11104.244999999999,-6483.87,5966.775
-10536.074999999999,-49212.9,-19932.704999999998,-42711.299999999996,-22923.45,-11020.32,-6518.655,5803.92
-10677.51,-49114.979999999996,-19887.84,-42768.54,-23034.6,-11093.22,-6453.315,5718.51
-10593.27,-48860.369999999995,-19875.555,-42882.93,-23173.065,-11178.63,-6462.224999999999,5754.014999999999
-10502.595,-48819.78,-19807.649999999998,-42876.854999999996,-23217.3,-11235.914999999999,-6492.105,5849.235
-10563.705,-48957.479999999996,-19778.219999999998,-42816.015,-23239.395,-11299.859999999999,-6523.965,5821.29
-10628.414999999999,-48759.165,-19762.29,-42693.075,-23113.62,-11258.82,-6535.035,5684.985
-10764.045,-48637.305,-19694.52,-42440.805,-22727.835,-10859.22,-6497.054999999999,5363.865
-10711.845,-49219.155,-19640.79,-42327.27,-22571.055,-10647.18,-6395.8949999999995,5432.804999999999
-10557.63,-49333.77,-19666.934999999998,-42393.78,-22705.065,-10764.945,-6362.639999999999,5719.005
-10454.175,-49306.005,-19773.27,-42640.38,-23076.629999999997,-11149.244999999999,-6377.13,6061.815
-10249.38,-49478.13,-19917.315,-42891.705,-23399.415,-11480.58,-6464.205,6261.21
-10231.02,-49075.11,-19760.985,-42880.994999999995,-23411.25,-11509.109999999999,-6611.94,6078.285
-10204.515,-48697.335,-19725.434999999998,-42898.725,-23400.315,-11477.88,-6670.755,6025.545
-10331.685,-48676.725,-19838.565,-42946.92,-23385.645,-11439.314999999999,-6620.264999999999,5965.92
-10511.955,-49078.439999999995,-20185.11,-43030.439999999995,-23315.04,-11356.289999999999,-6483.735,5957.46
-10694.115,-49277.115,-20290.59,-42982.515,-23187.195,-11210.445,-6403.365,5805.8099999999995
-10895.939999999999,-49233.24,-20042.1,-42771.96,-23030.594999999998,-11059.74,-6412.139999999999,5559.795
-10820.52,-49341.33,-19669.68,-42683.805,-23109.12,-11125.215,-6421.905,5632.38
-10313.595,-49240.305,-19399.815,-42603.57,-23153.895,-11141.685,-6452.6849999999995,5740.38
-10200.105,-48667.365,-19087.515,-42361.335,-22908.825,-10858.32,-6527.115,5443.695
-10258.515,-48602.205,-19189.755,-42385.095,-22818.149999999998,-10708.425,-6574.995,5641.38
-10305.855,-48906.405,-19557.719999999998,-42625.619999999995,-22989.69,-10820.34,-6719.264999999999,5964.57
-10115.19,-49064.58,-19657.215,-42914.655,-23294.07,-11115.09,-6966.8099999999995,6295.635
-9982.619999999999,-48797.595,-19562.94,-43152.345,-23616.675,-11435.939999999999,-7038.855,6345.2699999999995
-10041.93,-48668.49,-19615.815,-43401.869999999995,-23862.195,-11596.5,-6826.365,6227.01
-10190.744999999999,-48672.72,-19716.75,-43420.365,-23875.965,-11476.71,-6471.945,6071.445
-10436.265,-49095.18,-19809.63,-43090.875,-23720.04,-11326.59,-6322.23,5849.6849999999995
-10566.045,-49569.884999999995,-19733.489999999998,-42737.354999999996,-23389.695,-11105.279999999999,-6457.995,5802.974999999999
-10398.015,-49369.77,-19630.305,-42848.415,-23533.965,-11215.035,-6549.344999999999,6012.945
-10285.109999999999,-49178.25,-19721.07,-43142.085,-23857.739999999998,-11523.6,-6471.54,6161.849999999999
-10382.715,-49195.53,-19814.67,-43140.33,-23825.43,-11800.98,-6325.92,6116.04
-10547.414999999999,-49168.979999999996,-19816.92,-42972.03,-23498.1,-11716.56,-6304.679999999999,5938.605
-10594.35,-49189.275,-19792.395,-42880.005,-23248.26,-11409.119999999999,-6359.264999999999,5865.57
-10563.705,-49221.72,-19759.094999999998,-42829.47,-23185.71,-11239.425,-6422.67,5847.795
-10529.82,-49378.005,-19683.36,-42764.805,-23190.93,-11187.99,-6506.955,5851.17
-10541.34,-49247.189999999995,-19579.32,-42737.265,-23287.635,-11253.555,-6517.349999999999,5824.71
-10534.545,-49054.365,-19559.43,-42743.295,-23403.465,-11314.98,-6514.965,5836.995
-10428.39,-48890.88,-19559.79,-42810.659999999996,-23528.475,-11493.18,-6594.255,5838.03
-10478.25,-48945.645,-19572.344999999998,-42815.52,-23490.719999999998,-11546.1,-6581.565,5821.83
-10526.805,-49203.27,-19665.855,-42890.58,-23458.14,-11470.994999999999,-6478.875,5873.264999999999
-10421.01,-49376.475,-19733.85,-43009.155,-23347.665,-11264.039999999999,-6553.125,5937.705
-10313.955,-49210.29,-19679.399999999998,-43164.63,-23293.395,-11008.08,-6585.075,5949.719999999999
-10336.365,-49068.134999999995,-19600.829999999998,-43136.235,-23264.145,-10964.699999999999,-6543.179999999999,5918.175
-10456.02,-49042.485,-19570.59,-42961.59,-23120.594999999998,-10849.32,-6572.205,5788.889999999999
-10583.955,-48855.195,-19467.045,-42901.74,-23224.5,-10981.574999999999,-6601.679999999999,5708.7
-10751.805,-48848.22,-19501.695,-42887.295,-23334.93,-11305.215,-6404.4,5677.74
-10799.775,-49303.979999999996,-19639.305,-42748.2,-23177.16,-11412.0,-6247.215,5689.44
-10799.775,-49364.685,-19671.12,-42576.03,-22933.26,-11143.529999999999,-6355.08,5685.344999999999
-10595.835,-49368.78,-19657.17,-42421.049999999996,-22743.405,-10956.645,-6440.04,5770.215
-10441.845,-49240.619999999995,-19605.195,-42469.74,-22764.239999999998,-10921.59,-6433.965,5799.33
-10570.68,-48990.645,-19453.23,-42529.59,-22896.585,-11025.765,-6451.155,5727.6449999999995
-10708.515,-49122.72,-19375.155,-42461.369999999995,-22867.11,-10990.26,-6440.759999999999,5717.34
-10552.815,-49552.604999999996,-19507.905,-42616.17,-23002.469999999998,-11060.414999999999,-6402.285,5865.974999999999
-10494.404999999999,-49501.845,-19692.495,-42873.21,-23226.975,-11207.07,-6431.804999999999,5885.865
-10602.27,-49418.82,-19776.87,-42976.034999999996,-23332.815,-11261.789999999999,-6441.03,5847.974999999999
-10600.335,-49317.345,-19725.344999999998,-42923.97,-23327.19,-11260.125,-6483.915,5748.4349999999995
-10570.635,-49138.875,-19563.21,-42844.994999999995,-23268.555,-11223.404999999999,-6512.49,5695.469999999999
-10619.955,-49097.43,-19519.605,-42821.865,-23206.094999999998,-11172.15,-6492.195,5739.075
-10599.615,-49257.99,-19611.719999999998,-42819.255,-23164.92,-11128.59,-6467.49,5829.3
-10479.645,-49130.46,-19404.315,-42757.47,-23172.3,-11144.564999999999,-6530.04,5831.1449999999995
-10442.97,-48942.09,-19209.6,-42705.27,-23189.129999999997,-11167.064999999999,-6545.474999999999,5799.735
-10443.555,-49012.65,-19181.88,-42706.35,-23196.69,-11164.994999999999,-6487.065,5781.375
-10523.07,-49138.47,-19245.51,-42694.47,-23150.475,-11104.74,-6465.33,5799.195
-10484.865,-49264.02,-19309.41,-42725.34,-23144.805,-11079.855,-6466.7699999999995,5813.28
-10411.154999999999,-49062.104999999996,-19326.149999999998,-42794.189999999995,-23190.975,-11118.42,-6484.679999999999,5832.224999999999
-10375.605,-48901.68,-19264.545,-42817.095,-23258.204999999998,-11184.074999999999,-6497.235,5858.46
-10390.949999999999,-48958.424999999996,-19220.579999999998,-42798.915,-23281.829999999998,-11210.445,-6543.945,5837.76
-10306.529999999999,-49203.72,-19200.915,-42789.015,-23287.545,-11200.14,-6608.565,5913.719999999999
-10300.77,-49114.215,-19199.745,-42864.659999999996,-23383.215,-11268.675,-6690.735,5938.875
-10302.525,-49016.88,-19221.75,-42892.965,-23375.745,-11283.345,-6721.965,5881.1849999999995
-10373.85,-48915.405,-19200.329999999998,-42850.619999999995,-23211.18,-11085.074999999999,-6830.37,5707.844999999999
