ch_0,ch_1,ch_2,ch_3,ch_4,ch_5,ch_6,ch_7
4321.08,-30218.67,-1312.695,-436.905,11706.255,-16718.625,-3492.54,2017.3049999999998
4315.86,-30187.53,-1271.565,-423.18,11702.835,-16578.315,-3509.19,1983.06
4343.445,-30166.065,-1263.2849999999999,-547.515,11484.855,-16387.065,-3511.665,2001.6899999999998
4394.745,-30160.844999999998,-1222.29,-682.425,11195.73,-16337.07,-3511.08,2073.645
4361.13,-30261.015,-1214.6399999999999,-582.48,11376.135,-16731.27,-3447.9449999999997,2097.315
4255.83,-30364.92,-1297.35,-441.99,11744.234999999999,-16663.23,-3455.325,1986.9299999999998
4293.585,-30285.135,-1311.885,-601.515,11486.97,-16532.73,-3389.805,2015.73
4396.095,-30146.895,-1267.47,-647.595,11296.26,-16595.64,-3557.835,2131.11
4339.62,-30214.17,-1373.94,-594.495,11337.975,-16596.225,-3536.2349999999997,2105.73
4335.57,-30222.18,-1390.23,-671.0849999999999,11423.07,-16682.04,-3460.815,2071.305
4376.745,-30144.42,-1328.04,-751.68,11384.055,-16556.805,-3409.9649999999997,2040.84
4456.26,-30037.995,-1243.08,-674.145,11169.359999999999,-16765.739999999998,-3455.955,2096.0099999999998
4354.83,-30153.239999999998,-1306.305,-458.55,11470.005,-16627.32,-3597.48,2040.12
4317.345,-30195.18,-1340.055,-469.89,11652.074999999999,-16611.524999999998,-3530.3399999999997,1992.78
4357.3949999999995,-30118.59,-1250.145,-438.885,11744.369999999999,-16489.934999999998,-3537.6299999999997,1996.605
4409.82,-30052.079999999998,-1194.3,-512.595,11469.779999999999,-16273.89,-3559.95,2034.135
4392.0,-30061.62,-1220.76,-633.555,11354.76,-16263.99,-3390.975,1967.895
4530.87,-29881.574999999997,-1047.96,-646.605,11296.395,-16485.75,-3565.98,2075.085
4541.985,-29938.094999999998,-1112.085,-629.73,11148.029999999999,-16953.84,-3577.68,2215.08
4328.595,-30222.045,-1362.6,-461.565,11605.32,-16969.095,-3527.145,2082.96
4344.885,-30173.445,-1288.53,-437.49,11597.355,-16808.895,-3532.3199999999997,2058.705
4313.745,-30207.42,-1311.93,-542.475,11535.48,-16632.855,-3468.105,2028.8249999999998
4297.95,-30200.579999999998,-1294.2,-546.21,11496.015,-16471.215,-3465.81,1978.83
4362.345,-30152.565,-1313.9099999999999,-768.24,11404.395,-16456.05,-3463.515,2043.1799999999998
4494.599999999999,-29975.76,-1202.04,-1018.4399999999999,10746.0,-16222.724999999999,-3275.8199999999997,2091.735
4628.07,-29808.315,-1028.205,-1034.955,10225.8,-15876.494999999999,-3412.2149999999997,2142.45
4578.66,-29935.44,-1131.2549999999999,-930.78,10669.23,-16796.745,-3455.1,2234.745
4321.665,-30127.59,-1228.0049999999999,-327.24,11798.82,-16642.755,-3442.9049999999997,1911.4199999999998
4621.095,-29794.5,-924.3449999999999,-289.215,11183.49,-16779.69,-3718.7549999999997,2166.705
4347.18,-30190.5,-1247.58,-170.505,11940.57,-17065.17,-3580.92,2117.79
4133.61,-30389.175,-1403.82,-184.41,12454.92,-16673.85,-3547.98,1927.935
4302.675,-30198.51,-1316.655,-652.86,11429.369999999999,-16336.394999999999,-3352.6349999999998,2015.73
4450.995,-29983.635,-1206.315,-1129.725,10321.92,-15751.619999999999,-3189.015,2018.835
4672.62,-29762.82,-1034.73,-1078.965,10224.855,-16085.519999999999,-3554.1,2182.23
4504.7699999999995,-30018.78,-1159.245,-559.4399999999999,11339.505,-17512.11,-3574.44,2258.46
4205.205,-30301.379999999997,-1365.435,-366.34499999999997,11772.045,-16913.024999999998,-3475.665,1992.06
4211.1449999999995,-30204.989999999998,-1278.495,-366.47999999999996,12100.949999999999,-16484.22,-3465.6299999999997,1860.57
4390.155,-29999.25,-1093.365,-516.915,11857.59,-16421.489999999998,-3586.095,1973.205
4499.054999999999,-30063.059999999998,-1206.8999999999999,-594.36,11219.13,-17071.02,-3505.6349999999998,2251.62
4126.455,-30470.67,-1473.435,-229.905,12154.005,-17021.07,-3460.68,1995.21
4141.17,-30341.204999999998,-1328.445,-241.515,12239.775,-16353.81,-3363.345,1860.7949999999998
4358.115,-30012.48,-1074.33,-432.99,11516.49,-15939.945,-3048.8399999999997,1865.745
4537.845,-29858.67,-1022.76,-806.5799999999999,10819.574999999999,-16331.805,-2972.745,2038.23
4564.125,-29851.965,-987.39,-764.3249999999999,11001.51,-16459.335,-3333.7349999999997,2023.7849999999999
4510.3949999999995,-29942.684999999998,-943.4699999999999,-155.11499999999998,11707.785,-16295.67,-3700.305,2047.05
4308.03,-30235.32,-1303.695,-522.27,11529.359999999999,-16396.559999999998,-3412.665,2068.245
4380.705,-30109.59,-1293.705,-849.645,10697.85,-16561.305,-3433.68,2078.91
4317.93,-30128.399999999998,-1227.465,-437.895,11528.91,-16791.255,-3441.96,1961.82
4158.855,-30364.515,-1362.24,-331.335,12407.085,-16649.954999999998,-3381.165,1966.5
4198.815,-30322.079999999998,-1345.68,-468.405,11838.689999999999,-16692.12,-3510.6299999999997,2074.41
4209.57,-30229.649999999998,-1275.84,-316.34999999999997,11935.439999999999,-16762.32,-3500.19,2009.8799999999999
4169.43,-30269.789999999997,-1367.19,-401.49,11849.13,-16618.32,-3433.815,1980.405
4173.255,-30203.73,-1369.935,-604.845,11618.91,-16399.71,-3085.83,1844.595
4445.595,-29826.045,-1046.52,-816.8399999999999,10849.59,-15863.76,-3006.0,1803.915
4790.295,-29588.399999999998,-852.03,-737.415,10421.414999999999,-16443.045,-3518.955,2288.115
4280.445,-30277.754999999997,-1496.205,-585.54,11630.564999999999,-17124.434999999998,-3301.74,2103.255
4199.445,-30323.43,-1545.9299999999998,-556.47,12138.3,-16642.98,-3440.0699999999997,1902.0149999999999
4420.035,-30117.329999999998,-1406.205,-709.6949999999999,11488.859999999999,-16732.71,-3506.49,2110.095
4397.085,-30113.414999999997,-1384.155,-830.745,11230.335,-16502.715,-3376.08,2083.68
4528.035,-29907.495,-1189.44,-904.275,10924.199999999999,-16223.22,-3299.4449999999997,2085.5699999999997
4552.695,-29928.195,-1174.815,-755.91,10894.635,-16859.565,-3352.5,2215.71
4268.7,-30214.395,-1337.715,-491.58,11311.335,-16857.855,-3360.24,2032.695
4145.445,-30273.48,-1336.0049999999999,-352.395,12143.609999999999,-16502.489999999998,-3517.6949999999997,1845.54
4214.474999999999,-30185.414999999997,-1260.27,-367.425,11894.49,-16481.745,-3489.5699999999997,1886.5349999999999
4273.155,-30088.664999999997,-1195.3799999999999,-453.87,11717.685,-16263.63,-3273.975,1854.495
4456.17,-29847.329999999998,-1026.135,-708.75,11404.935,-15914.519999999999,-3055.5899999999997,1833.84
4496.445,-29823.254999999997,-1012.77,-580.77,11294.73,-16262.055,-3339.99,1981.3049999999998
4509.045,-29775.375,-976.635,-655.02,10876.005,-16067.88,-3514.455,2004.435
4705.785,-29608.965,-874.8449999999999,-1131.6599999999999,9682.785,-15594.75,-3414.1949999999997,2149.92
4562.6849999999995,-29925.225,-1137.375,-584.145,10759.23,-17007.75,-3369.4649999999997,2301.21
4064.805,-30474.315,-1558.08,-224.505,12770.279999999999,-17064.18,-3482.37,1945.1699999999998
4294.26,-30157.335,-1386.54,-901.53,11362.859999999999,-16033.994999999999,-3136.545,1939.905
4659.03,-29725.695,-980.3249999999999,-972.045,10307.654999999999,-16805.655,-3032.145,2182.6349999999998
4351.1849999999995,-29986.559999999998,-1064.925,-420.705,11552.445,-16803.27,-3313.17,1938.51
4353.66,-29909.879999999997,-1018.305,-581.985,11217.33,-15505.154999999999,-3010.23,1738.7549999999999
4656.554999999999,-29794.184999999998,-999.99,-650.52,10201.904999999999,-16529.175,-3500.19,2321.955
3936.33,-30501.765,-1517.355,-58.815,12751.244999999999,-17071.065,-3419.955,1794.735
4160.385,-30143.34,-1193.355,-19.349999999999998,12799.35,-16610.265,-3280.5899999999997,1661.58
4372.335,-29983.454999999998,-1105.83,-249.885,12070.574999999999,-16673.625,-3436.29,1945.125
4177.71,-30209.399999999998,-1325.34,-392.84999999999997,12005.82,-16686.09,-3486.69,1964.2949999999998
4289.849999999999,-30006.495,-1143.0449999999998,-425.96999999999997,11869.785,-16168.904999999999,-3448.98,1872.945
4634.054999999999,-29621.024999999998,-825.5699999999999,-629.3249999999999,11367.404999999999,-15818.175,-3621.96,2058.21
4749.57,-29678.895,-1052.7749999999999,-1458.855,9676.17,-16029.09,-3271.5,2359.935
4474.215,-29998.35,-1300.5,-1197.54,9983.565,-16753.274999999998,-3365.19,2209.725
4105.125,-30294.629999999997,-1340.37,-117.63,12595.68,-16930.665,-3708.315,1844.7749999999999
4077.045,-30306.465,-1349.19,-77.085,12625.244999999999,-16337.16,-3671.91,1779.975
4275.9,-30105.045,-1217.925,-398.385,11764.71,-16557.165,-3552.345,1972.71
4374.945,-29983.635,-1115.01,-331.56,11938.994999999999,-16559.954999999998,-3746.52,2039.58
4344.12,-30072.329999999998,-1236.51,-471.33,11844.135,-16302.33,-3718.4849999999997,2051.37
4439.429999999999,-29968.515,-1184.625,-715.4549999999999,11356.92,-16226.324999999999,-3743.64,2091.42
4484.16,-29894.445,-1138.905,-967.995,10724.76,-16414.29,-3532.77,2097.81
4441.59,-29907.225,-1096.5149999999999,-724.68,10813.41,-16598.565,-3448.305,2003.2649999999999
4116.195,-30212.594999999998,-1186.695,-8.415,12294.045,-16451.28,-3756.42,1797.12
4170.42,-30188.204999999998,-1188.945,-153.09,12151.08,-16215.029999999999,-3892.23,1916.0549999999998
4361.805,-30081.239999999998,-1245.87,-654.255,11439.18,-16547.399999999998,-3706.02,2101.23
4409.1449999999995,-30076.379999999997,-1309.77,-869.31,10950.164999999999,-16671.69,-3653.5049999999997,2137.6349999999998
4401.495,-30100.995,-1333.08,-905.4449999999999,10765.574999999999,-16430.309999999998,-3574.08,2109.33
4548.599999999999,-29911.995,-1288.8,-1386.27,10478.475,-16289.865,-3481.065,2126.16
4764.51,-29640.87,-1033.6499999999999,-1077.12,9883.305,-16764.434999999998,-3578.4,2273.49
4306.41,-30023.864999999998,-1166.985,-237.915,11704.77,-16697.114999999998,-3783.42,1963.7549999999999
4165.11,-30200.489999999998,-1280.2949999999998,-207.17999999999998,12438.945,-16494.48,-3847.0049999999997,1862.0549999999998
4227.389999999999,-30207.375,-1306.8,-334.8,11996.91,-16803.18,-3731.58,1984.77
4099.86,-30293.954999999998,-1302.57,-120.42,12441.6,-16512.84,-3750.5249999999996,1841.3999999999999
4163.3099999999995,-30184.335,-1179.7649999999999,-280.66499999999996,12079.08,-16118.82,-3589.4249999999997,1826.37
4365.99,-29912.715,-954.4499999999999,-519.03,11479.005,-15776.775,-3407.265,1848.78
4525.065,-29835.495,-979.245,-566.1899999999999,11233.664999999999,-16427.07,-3631.23,2129.67
4320.8099999999995,-30086.28,-1296.18,-579.015,11578.859999999999,-16459.245,-3529.7549999999997,2051.055
4495.95,-29812.77,-1184.85,-1035.675,10817.369999999999,-15810.48,-3340.2149999999997,2000.835
4761.585,-29499.57,-979.0649999999999,-1276.2,10179.855,-16143.029999999999,-3148.47,2066.085
4888.755,-29489.895,-917.3249999999999,-798.615,10303.605,-16915.095,-3742.47,2412.6749999999997
4363.47,-30042.09,-1236.195,-25.83,12204.135,-16542.315,-3583.89,2005.83
4191.57,-30209.445,-1356.21,-150.29999999999998,12613.545,-16578.72,-3615.8849999999998,1957.185
4259.745,-30093.84,-1236.465,-283.455,11812.994999999999,-16805.925,-3521.79,1990.71
4178.295,-30175.065,-1261.665,-251.37,12131.685,-16582.41,-3604.995,1923.57
4178.5199999999995,-30189.87,-1285.155,-393.39,12051.675,-16395.57,-3557.475,1933.5149999999999
4266.405,-30119.039999999997,-1286.595,-635.175,11546.685,-16386.165,-3425.4449999999997,1993.095
4351.095,-30002.219999999998,-1221.705,-685.665,11284.785,-16423.155,-3363.5699999999997,2002.5449999999998
4444.785,-29882.114999999998,-1098.135,-499.54499999999996,11392.83,-16485.66,-3513.06,2040.6599999999999
4361.535,-29973.42,-1183.23,-551.025,11508.255,-16289.099999999999,-3450.24,2002.095
4530.825,-29717.414999999997,-978.3449999999999,-799.02,10890.81,-15887.16,-3382.29,2052.36
4670.054999999999,-29603.385,-916.1999999999999,-1010.79,10021.635,-16267.005,-3377.43,2220.795
4335.57,-30079.8,-1271.565,-750.87,11229.255,-16844.355,-3426.5699999999997,2097.4049999999997
4061.3399999999997,-30403.53,-1502.865,-372.015,12282.525,-16991.415,-3403.845,1908.585
4120.695,-30264.614999999998,-1374.165,-372.15,12083.85,-16584.075,-3405.7799999999997,1865.6999999999998
4276.845,-30077.235,-1268.865,-691.92,11595.195,-16196.625,-3188.9249999999997,1936.4399999999998
4537.62,-29747.789999999997,-971.055,-802.665,10924.965,-15936.119999999999,-2992.95,1974.6
4691.429999999999,-29668.004999999997,-791.9549999999999,-645.03,10589.984999999999,-16305.119999999999,-3302.595,2104.02
4366.26,-30171.329999999998,-1245.555,-513.54,11456.46,-16948.35,-3454.335,2215.2599999999998
4031.91,-30433.86,-1468.3049999999998,-310.59,12217.32,-16653.915,-3331.575,1924.155
4180.68,-30114.449999999997,-1220.445,-315.135,11898.27,-16201.035,-3203.64,1791.945
4352.355,-29869.695,-1045.53,-228.015,11781.945,-15957.404999999999,-3424.77,1864.1699999999998
4455.9,-29907.315,-1204.245,-687.24,11070.27,-16611.345,-3440.43,2190.1949999999997
4259.25,-30096.945,-1420.02,-870.39,11180.52,-16118.279999999999,-3172.455,1952.73
4478.355,-29798.1,-1163.1599999999999,-885.015,10750.32,-15815.88,-3232.89,1977.7949999999998
4471.83,-29919.645,-1235.43,-660.1949999999999,11096.279999999999,-16680.825,-3378.24,2190.645
4247.73,-30048.344999999998,-1213.695,-250.92,12275.685,-17004.465,-3357.765,1944.54
4233.555,-30017.789999999997,-1150.74,-232.29,12348.855,-16585.2,-3388.455,1895.49
4359.195,-29919.105,-1101.645,-491.31,11760.66,-16507.215,-3364.83,2004.345
4431.014999999999,-29876.399999999998,-1105.425,-691.425,11423.654999999999,-16472.114999999998,-3302.5499999999997,2071.485
4506.795,-29831.355,-1117.53,-744.12,11289.6,-16610.985,-3337.29,2140.1549999999997
4389.75,-29942.055,-1190.52,-480.015,11501.414999999999,-16669.934999999998,-3274.92,2030.31
4309.2,-29996.37,-1221.165,-495.945,11460.555,-16174.08,-3264.48,1952.0549999999998
4448.295,-29887.649999999998,-1192.095,-881.865,10869.3,-16128.269999999999,-3142.5299999999997,2090.79
4447.98,-29885.445,-1160.19,-705.24,11039.535,-16848.27,-3023.64,2086.245
4219.11,-30087.945,-1236.645,-201.73499999999999,12247.425,-16619.445,-3248.64,1878.885
4268.565,-30062.745,-1239.435,-312.93,12062.744999999999,-16417.26,-3252.1949999999997,1939.455
4339.71,-29986.875,-1179.72,-397.97999999999996,11794.859999999999,-16434.18,-3232.44,1981.485
4370.445,-29952.09,-1170.18,-505.215,11619.855,-16445.61,-3212.19,2021.85
4412.295,-29894.579999999998,-1143.99,-568.215,11492.01,-16507.755,-3195.4049999999997,2051.055
4413.0599999999995,-29896.92,-1150.425,-591.48,11429.685,-16361.189999999999,-3184.74,2028.465
