ch_0,ch_1,ch_2,ch_3,ch_4,ch_5,ch_6,ch_7
18970.469999999998,8880.975,10303.199999999999,1942.9199999999998,-94295.43,-28404.405,18582.434999999998,-7972.785
18970.11,8879.355,10301.445,1942.02,-94305.23999999999,-28403.414999999997,18587.565,-7972.83
18970.245,8878.05,10296.63,1934.685,-94314.555,-28412.774999999998,18592.469999999998,-7970.94
18974.25,8879.31,10297.484999999999,1932.3,-94310.595,-28418.265,18597.015,-7966.755
18974.835,8875.35,10292.895,1925.28,-94314.105,-28431.539999999997,18594.045,-7969.634999999999
18967.14,8869.32,10287.045,1919.205,-94314.87,-28439.37,18584.055,-7979.94
18965.655,8870.625,10288.44,1923.5249999999999,-94304.7,-28435.004999999997,18579.375,-7980.66
18976.364999999998,8879.94,10300.185,1937.79,-94293.72,-28420.335,18584.954999999998,-7970.67
18984.329999999998,8883.539999999999,10305.72,1943.955,-94291.875,-28415.61,18597.78,-7959.915
18978.075,8881.109999999999,10303.244999999999,1942.155,-94296.15,-28414.98,18591.795,-7965.99
18969.66,8875.305,10296.765,1935.0449999999998,-94302.405,-28419.614999999998,18584.01,-7975.259999999999
18971.37,8876.744999999999,10299.69,1939.05,-94297.5,-28419.75,18590.489999999998,-7971.884999999999
18968.535,8873.324999999999,10297.845,1942.74,-94290.345,-28418.219999999998,18589.86,-7972.2
18965.024999999998,8869.275,10292.58,1939.32,-94291.965,-28418.67,18587.43,-7975.62
18965.969999999998,8873.369999999999,10295.865,1942.155,-94286.83499999999,-28410.795,18588.6,-7974.134999999999
18965.475,8872.92,10294.47,1938.465,-94292.19,-28417.86,18584.594999999998,-7975.53
18958.635,8866.89,10286.91,1928.34,-94303.215,-28427.219999999998,18579.96,-7980.974999999999
18963.45,8873.145,10294.83,1933.9199999999998,-94302.495,-28422.315,18586.125,-7976.5199999999995
18964.53,8875.89,10299.51,1936.845,-94303.08,-28419.57,18590.265,-7973.865
18960.39,8872.92,10296.9,1934.9099999999999,-94306.59,-28424.789999999997,18583.469999999998,-7978.995
18956.655,8870.805,10294.38,1932.57,-94310.415,-28429.965,18574.155,-7983.585
18957.329999999998,8869.23,10291.77,1930.6799999999998,-94311.58499999999,-28429.785,18575.37,-7982.865
18958.545,8867.88,10289.835,1929.51,-94314.105,-28428.75,18575.46,-7981.695
18956.52,8865.81,10285.785,1924.3799999999999,-94321.935,-28437.66,18578.16,-7980.165
18953.19,8862.975,10281.734999999999,1918.62,-94329.26999999999,-28456.785,18575.954999999998,-7983.179999999999
18953.325,8863.38,10280.789999999999,1915.245,-94332.64499999999,-28463.579999999998,18574.92,-7984.44
18956.655,8865.855,10282.545,1914.48,-94334.04,-28455.57,18577.35,-7981.335
18959.625,8866.08,10286.369999999999,1918.125,-94327.605,-28435.5,18578.835,-7979.849999999999
18962.684999999998,8868.779999999999,10291.32,1924.0649999999998,-94319.86499999999,-28420.739999999998,18584.055,-7977.6449999999995
18962.19,8868.914999999999,10291.005,1923.48,-94321.89,-28426.23,18586.575,-7976.88
18956.61,8862.705,10283.67,1913.985,-94332.465,-28442.43,18581.805,-7981.695
18957.735,8863.56,10284.93,1915.02,-94333.95,-28444.23,18582.57,-7981.29
18953.684999999998,8861.535,10282.455,1912.1399999999999,-94341.23999999999,-28445.445,18575.55,-7988.085
18957.78,8863.83,10285.244999999999,1918.0349999999999,-94341.735,-28438.965,18575.28,-7986.465
18955.17,8857.664999999999,10280.744999999999,1915.9199999999998,-94346.64,-28440.675,18568.844999999998,-7991.1449999999995
18956.204999999998,8859.33,10287.404999999999,1926.27,-94326.84,-28426.32,18568.305,-7991.009999999999
18955.755,8861.76,10288.98,1927.0349999999999,-94320.94499999999,-28429.02,18574.29,-7988.849999999999
18956.88,8862.885,10287.81,1922.76,-94325.04,-28440.719999999998,18580.32,-7985.5199999999995
18955.8,8859.824999999999,10285.695,1921.455,-94319.19,-28447.065,18581.399999999998,-7986.465
18952.29,8856.27,10284.3,1921.59,-94318.83,-28448.28,18579.239999999998,-7989.929999999999
18949.184999999998,8854.065,10284.21,1923.03,-94321.845,-28444.454999999998,18573.93,-7992.945
18952.245,8857.574999999999,10285.83,1922.76,-94325.67,-28441.98,18579.195,-7989.255
18945.809999999998,8850.96,10277.91,1913.895,-94338.18,-28453.364999999998,18574.695,-7994.384999999999
18946.26,8851.904999999999,10281.645,1917.855,-94334.76,-28450.53,18569.88,-7996.905
18948.195,8854.38,10286.55,1922.22,-94326.66,-28441.754999999997,18567.045,-7998.12
18946.17,8855.234999999999,10287.63,1924.29,-94320.855,-28432.125,18566.73,-7998.389999999999
18945.27,8854.38,10287.404999999999,1925.46,-94317.56999999999,-28425.87,18572.175,-7996.679999999999
18942.12,8851.68,10286.234999999999,1925.7749999999999,-94316.22,-28429.02,18573.344999999998,-7999.245
18937.98,8849.385,10283.58,1924.155,-94318.37999999999,-28434.42,18573.12,-8002.44
18932.13,8846.55,10279.44,1921.995,-94319.955,-28434.78,18567.09,-8007.255
18942.975,8855.91,10287.135,1927.935,-94316.355,-28428.12,18571.815,-7997.13
18947.745,8858.744999999999,10284.93,1923.7949999999998,-94322.87999999999,-28435.545,18572.805,-7991.549999999999
18952.695,8861.175,10282.23,1919.0249999999999,-94327.83,-28441.305,18583.559999999998,-7984.17
18949.545,8858.52,10279.26,1915.695,-94330.34999999999,-28442.745,18579.78,-7990.0199999999995
18951.03,8858.654999999999,10278.449999999999,1913.31,-94333.455,-28448.01,18576.945,-7994.5199999999995
18951.704999999998,8857.529999999999,10277.19,1912.185,-94333.59,-28453.23,18577.035,-7996.59
18948.285,8855.234999999999,10275.93,1911.78,-94332.33,-28456.02,18576.18,-7999.469999999999
18946.079999999998,8855.055,10277.595,1912.905,-94328.91,-28458.45,18572.895,-8002.349999999999
18943.92,8855.82,10283.085,1918.7549999999999,-94316.04,-28452.96,18571.59,-8003.835
18943.829999999998,8855.46,10281.555,1916.1899999999998,-94311.495,-28455.975,18570.645,-8002.98
18943.02,8851.68,10273.68,1906.155,-94319.685,-28464.57,18567.45,-8003.835
18945.585,8853.21,10275.255,1904.8049999999998,-94330.62,-28467.405,18566.594999999998,-8001.99
18941.715,8851.635,10275.345,1904.895,-94368.51,-28474.065,18560.204999999998,-8007.57
18944.82,8855.055,10279.305,1909.5749999999998,-94402.935,-28471.094999999998,18568.98,-8004.0599999999995
18941.94,8853.21,10277.369999999999,1908.54,-94397.44499999999,-28466.19,18570.059999999998,-8008.2
18940.86,8854.785,10279.755,1914.2549999999999,-94341.33,-28449.765,18565.29,-8010.585
18939.239999999998,8853.119999999999,10276.56,1913.22,-94307.58,-28438.02,18565.605,-8011.08
18934.559999999998,8847.36,10272.6,1910.925,-94321.53,-28436.895,18567.36,-8015.04
18943.335,8855.685,10283.535,1921.995,-94317.3,-28433.52,18574.695,-8008.065
18945.989999999998,8857.529999999999,10283.31,1920.465,-94322.7,-28443.015,18570.645,-8007.12
18947.385,8858.295,10283.445,1918.7549999999999,-94327.515,-28447.649999999998,18564.885,-8007.255
18950.265,8863.154999999999,10286.19,1920.96,-94324.995,-28445.039999999997,18574.605,-7999.514999999999
18943.2,8855.46,10276.56,1910.8799999999999,-94334.48999999999,-28458.315,18570.78,-8005.32
18942.93,8852.49,10274.535,1908.09,-94338.58499999999,-28456.965,18568.62,-8007.84
18947.88,8854.875,10276.154999999999,1908.495,-94350.64499999999,-28458.315,18574.02,-8003.5199999999995
18947.295,8851.32,10272.869999999999,1902.735,-94365.495,-28472.76,18574.92,-8004.42
18944.28,8847.99,10269.449999999999,1896.48,-94370.58,-28483.92,18573.614999999998,-8005.41
18942.93,8845.965,10264.68,1887.615,-94375.845,-28497.6,18570.87,-8006.219999999999
18940.5,8843.22,10261.935,1882.98,-94377.23999999999,-28502.414999999997,18569.745,-8007.165
18935.145,8840.205,10260.0,1881.135,-94370.4,-28498.995,18563.535,-8012.79
18928.26,8836.92,10256.625,1880.9099999999999,-94369.31999999999,-28495.44,18556.695,-8020.665
18931.77,8839.98,10262.88,1889.73,-94359.42,-28486.62,18558.719999999998,-8016.974999999999
18925.425,8836.065,10263.51,1892.1599999999999,-94354.65,-28479.825,18553.274999999998,-8021.7
18923.67,8836.199999999999,10267.695,1902.1499999999999,-94341.64499999999,-28464.57,18554.309999999998,-8023.634999999999
18925.515,8837.279999999999,10267.695,1904.58,-94336.785,-28458.45,18559.17,-8021.295
18920.61,8831.654999999999,10259.595,1895.985,-94345.065,-28472.489999999998,18552.329999999998,-8026.785
18920.969999999998,8832.105,10263.824999999999,1903.6799999999998,-94334.89499999999,-28470.96,18552.915,-8028.495
18927.719999999998,8837.505,10273.725,1913.6699999999998,-94325.84999999999,-28465.739999999998,18561.96,-8021.295
18937.44,8845.335,10280.295,1916.595,-94326.56999999999,-28468.395,18571.905,-8009.639999999999
18928.26,8837.46,10268.955,1905.12,-94338.405,-28477.98,18568.934999999998,-8016.795
18926.37,8837.82,10268.73,1906.83,-94335.705,-28470.059999999998,18570.96,-8019.63
18926.954999999998,8839.395,10271.025,1908.945,-94331.34,-28462.68,18567.36,-8022.285
18935.864999999998,8844.93,10274.805,1907.955,-94335.12,-28465.065,18569.745,-8015.94
18931.725,8840.34,10269.72,1901.52,-94342.905,-28465.065,18567.809999999998,-8018.82
18933.93,8843.175,10270.664999999999,1903.1399999999999,-94342.815,-28465.739999999998,18572.219999999998,-8014.23
18929.43,8836.965,10264.23,1894.725,-94349.655,-28477.17,18570.42,-8017.785
18925.605,8833.545,10261.08,1888.56,-94358.655,-28488.239999999998,18561.825,-8022.599999999999
18923.265,8829.494999999999,10257.795,1885.0049999999999,-94363.155,-28501.11,18551.61,-8025.75
18934.38,8838.72,10268.055,1894.9499999999998,-94351.995,-28507.23,18567.0,-8011.62
18930.645,8835.57,10264.635,1890.81,-94354.605,-28507.86,18573.885,-8011.44
18924.975,8833.005,10262.025,1888.875,-94355.595,-28497.645,18567.45,-8017.514999999999
18923.805,8831.025,10260.585,1888.875,-94356.09,-28488.51,18563.625,-8020.304999999999
18916.695,8825.67,10256.76,1886.22,-94356.855,-28481.445,18557.91,-8028.764999999999
18918.27,8826.164999999999,10259.369999999999,1889.145,-94351.905,-28471.86,18561.105,-8029.44
18921.51,8827.74,10259.505,1887.12,-94358.06999999999,-28477.35,18561.735,-8025.974999999999
18926.954999999998,8833.365,10263.105,1886.445,-94371.165,-28490.355,18564.975,-8020.755
18923.085,8827.605,10257.119999999999,1877.985,-94389.165,-28510.695,18560.745,-8024.445
18922.59,8824.68,10255.185,1876.185,-94386.33,-28513.89,18561.329999999998,-8025.705
18926.19,8828.82,10258.335,1882.215,-94372.2,-28503.315,18566.684999999998,-8022.195
18916.2,8820.945,10250.055,1876.905,-94368.69,-28496.475,18559.215,-8029.889999999999
18911.52,8821.485,10252.08,1882.1699999999998,-94351.31999999999,-28487.204999999998,18557.235,-8031.87
18913.184999999998,8825.715,10258.965,1891.5749999999998,-94338.26999999999,-28480.635,18560.969999999998,-8030.07
18913.86,8827.515,10263.645,1898.955,-94332.33,-28469.969999999998,18560.745,-8030.429999999999
18912.195,8826.705,10264.095,1901.745,-94330.17,-28460.565,18559.844999999998,-8031.6449999999995
18909.18,8824.32,10259.82,1895.895,-94338.135,-28465.425,18557.594999999998,-8035.2
18905.445,8820.945,10252.98,1887.165,-94350.42,-28482.524999999998,18552.78,-8039.969999999999
18911.88,8828.414999999999,10256.76,1889.1899999999998,-94347.18,-28485.765,18557.594999999998,-8033.8949999999995
18916.695,8831.925,10256.535,1884.735,-94352.805,-28496.655,18558.135,-8029.215
18914.355,8830.71,10254.734999999999,1880.0549999999998,-94357.89,-28506.015,18561.465,-8030.565
18907.92,8823.96,10247.76,1871.955,-94360.59,-28518.885,18558.63,-8036.955
18906.66,8819.279999999999,10240.515,1861.3799999999999,-94365.36,-28530.855,18560.385,-8035.29
18906.93,8817.57,10239.074999999999,1860.705,-94369.635,-28530.135,18559.35,-8034.615
18912.059999999998,8822.654999999999,10247.085,1870.335,-94391.50499999999,-28518.03,18562.77,-8030.07
18911.385,8822.52,10250.64,1873.665,-94431.78,-28513.44,18562.23,-8032.139999999999
18915.93,8826.795,10257.705,1882.08,-94424.67,-28501.245,18567.0,-8027.775
18909.045,8822.07,10249.605,1874.745,-94389.345,-28501.559999999998,18560.655,-8032.59
18897.795,8814.96,10245.285,1875.465,-94347.54,-28489.545,18551.61,-8043.66
18904.545,8824.949999999999,10260.539999999999,1892.115,-94341.19499999999,-28475.55,18554.355,-8041.23
18904.77,8825.4,10263.015,1897.0649999999998,-94338.855,-28468.8,18559.079999999998,-8039.79
18900.945,8821.485,10257.48,1892.6999999999998,-94341.915,-28471.454999999998,18556.11,-8042.49
18903.195,8821.17,10255.41,1892.52,-94341.015,-28470.69,18553.41,-8039.429999999999
18902.295,8815.365,10248.21,1884.105,-94350.23999999999,-28483.605,18553.454999999998,-8037.2699999999995
18901.71,8815.005,10248.48,1881.495,-94355.28,-28491.795,18548.325,-8039.88
18902.61,8816.355,10249.515,1880.73,-94357.305,-28494.0,18550.35,-8039.655
18898.605,8814.105,10244.205,1874.97,-94364.595,-28501.155,18550.305,-8041.365
18895.005,8810.955,10238.984999999999,1870.47,-94371.705,-28507.274999999998,18543.6,-8043.48
18899.415,8814.105,10243.26,1874.8799999999999,-94368.915,-28503.18,18543.96,-8039.295
18903.87,8820.99,10250.279999999999,1883.0249999999999,-94362.20999999999,-28496.16,18546.21,-8035.83
18902.43,8818.65,10248.074999999999,1879.605,-94365.045,-28498.454999999998,18547.469999999998,-8036.19
18896.67,8811.855,10243.08,1875.2849999999999,-94370.535,-28502.325,18549.135,-8041.41
18893.024999999998,8808.3,10241.145,1872.72,-94374.135,-28503.945,18547.515,-8044.83
18892.485,8808.48,10242.539999999999,1873.1699999999998,-94373.64,-28510.379999999997,18542.385,-8048.07
18896.445,8812.529999999999,10249.875,1880.595,-94364.955,-28514.34,18541.26,-8047.44
18903.375,8814.555,10251.72,1881.81,-94365.9,-28515.42,18552.51,-8039.565
18902.925,8811.27,10245.285,1874.835,-94375.845,-28519.829999999998,18553.41,-8040.195
18899.055,8808.119999999999,10241.91,1871.685,-94380.84,-28527.93,18544.23,-8048.115
18899.01,8808.119999999999,10242.225,1871.955,-94380.93,-28527.84,18544.274999999998,-8049.87
18900.09,8809.605,10245.734999999999,1878.0749999999998,-94373.055,-28517.219999999998,18547.605,-8048.34
18902.61,8815.14,10255.05,1889.37,-94359.105,-28500.57,18555.03,-8042.67
18896.085,8810.64,10255.275,1890.0449999999998,-94360.23,-28488.914999999997,18551.52,-8047.304999999999
