ch_0,ch_1,ch_2,ch_3,ch_4,ch_5,ch_6,ch_7
-32706.449999999997,-77332.455,-34031.34,-27635.85,-29075.129999999997,-34031.79,-3250.665,-5790.465
-32703.795,-77380.29,-34166.79,-27675.719999999998,-29094.66,-34039.619999999995,-3260.52,-5784.75
-32708.699999999997,-77426.775,-34329.915,-27642.465,-28934.325,-33960.555,-3274.785,-5787.315
-32732.19,-77495.58,-34551.54,-27768.285,-29123.82,-34072.875,-3241.44,-5792.49
-32721.795,-77426.09999999999,-34422.345,-28115.64,-29457.585,-34057.53,-3219.075,-5795.28
-32722.289999999997,-77348.06999999999,-34071.39,-27996.795,-29499.704999999998,-34074.54,-3234.4649999999997,-5802.344999999999
-32718.329999999998,-77321.745,-33972.39,-27493.965,-29306.969999999998,-34007.49,-3265.785,-5806.755
-32731.739999999998,-77432.31,-34289.01,-27545.219999999998,-29024.37,-33803.595,-3251.295,-5792.76
-32683.364999999998,-77366.87999999999,-34187.534999999996,-27848.07,-29182.68,-34181.145,-3246.66,-5751.09
-32674.184999999998,-77280.66,-33928.02,-27738.405,-29327.039999999997,-34151.58,-3250.44,-5764.724999999999
-32677.289999999997,-77313.015,-34026.84,-27631.035,-29362.725,-34052.715,-3252.33,-5765.13
-32692.77,-77383.305,-34197.705,-27628.829999999998,-29223.675,-34028.325,-3256.515,-5764.59
-32696.145,-77501.205,-34685.775,-27458.73,-29077.245,-34082.1,-3240.27,-5748.255
-32719.32,-77589.45,-34845.39,-27675.225,-28965.78,-34081.38,-3237.0299999999997,-5761.3949999999995
-32723.37,-77501.06999999999,-34354.125,-28146.914999999997,-29213.145,-34209.72,-3241.395,-5764.005
-32731.605,-77464.665,-34369.155,-27793.125,-29258.28,-34256.52,-3278.9249999999997,-5781.24
-32735.699999999997,-77537.06999999999,-34759.485,-27895.364999999998,-29056.14,-34108.515,-3254.265,-5772.195
-32646.914999999997,-77275.75499999999,-34009.83,-28147.77,-29973.015,-34896.24,-3242.565,-5740.29
-32624.864999999998,-77135.58,-33558.21,-27673.469999999998,-29559.465,-34008.705,-3307.5,-5767.29
-32677.425,-77326.02,-33974.415,-27732.645,-29236.32,-33653.43,-3272.085,-5761.53
-32678.954999999998,-77343.705,-34112.205,-27783.945,-29208.465,-33687.674999999996,-3261.1949999999997,-5768.415
-32632.515,-77236.37999999999,-33791.67,-27881.235,-29552.309999999998,-34474.59,-3262.5899999999997,-5746.41
-32630.535,-77230.89,-33705.81,-27521.594999999998,-29075.985,-33880.815,-3324.06,-5753.79
-32641.785,-77390.055,-34237.08,-27539.594999999998,-28939.454999999998,-33785.28,-3291.8399999999997,-5719.139999999999
-32641.559999999998,-77438.11499999999,-34531.244999999995,-27654.614999999998,-29098.26,-34029.945,-3272.7599999999998,-5709.105
-32638.59,-77388.48,-34398.09,-27906.795,-29544.12,-34921.395,-3220.065,-5704.514999999999
-32660.73,-77302.215,-34022.385,-27895.23,-29608.829999999998,-34428.78,-3266.19,-5763.24
-32662.44,-77263.515,-33787.125,-27570.69,-29336.579999999998,-33931.53,-3288.33,-5772.42
-32617.754999999997,-77196.555,-33653.744999999995,-27518.94,-29267.594999999998,-34028.505,-3304.7549999999997,-5742.36
-32614.829999999998,-77221.125,-33773.49,-27477.0,-29216.295,-34043.625,-3308.4449999999997,-5733.045
-32619.149999999998,-77281.065,-33933.33,-27633.735,-29142.0,-34006.005,-3313.17,-5724.2699999999995
-32640.524999999998,-77320.935,-33981.345,-27608.265,-29037.69,-34110.765,-3289.14,-5735.565
-32636.204999999998,-77343.25499999999,-34087.905,-27486.135,-29160.045,-34037.235,-3273.93,-5729.804999999999
-32650.065,-77428.215,-34331.625,-27740.835,-29427.254999999997,-34107.885,-3255.12,-5715.99
-32671.079999999998,-77407.65,-34255.35,-27823.32,-29393.414999999997,-34225.74,-3257.145,-5743.125
-32654.745,-77328.94499999999,-34154.64,-27625.905,-29194.605,-33854.265,-3278.205,-5756.4
-32618.07,-77318.19,-34163.055,-27384.39,-29015.19,-33970.994999999995,-3294.99,-5722.785
-32596.875,-77328.18,-34131.78,-27598.14,-29290.905,-34115.49,-3287.6549999999997,-5682.15
-32621.715,-77313.015,-33956.82,-27708.254999999997,-29429.145,-34134.93,-3283.83,-5702.355
-32641.245,-77324.12999999999,-33971.94,-27780.434999999998,-29332.62,-33996.465,-3273.8399999999997,-5720.085
-32642.504999999997,-77367.51,-34140.42,-27675.675,-29170.664999999997,-33998.895,-3280.365,-5721.48
-32658.03,-77462.235,-34400.79,-27867.96,-29092.5,-33887.565,-3248.415,-5714.594999999999
-32641.739999999998,-77458.05,-34427.655,-27808.289999999997,-29360.07,-34200.854999999996,-3247.875,-5699.34
-32599.98,-77377.95,-34254.225,-27674.325,-29522.789999999997,-34355.61,-3288.555,-5686.965
-32577.93,-77292.405,-34077.195,-27535.635,-29312.37,-34037.595,-3328.29,-5696.19
-32623.02,-77436.62999999999,-34536.69,-27572.355,-29054.34,-33888.96,-3291.48,-5696.054999999999
-32614.379999999997,-77437.44,-34434.18,-27990.36,-29568.015,-34361.1,-3252.015,-5667.389999999999
-32625.18,-77310.62999999999,-33840.854999999996,-27920.385,-29421.719999999998,-34172.595,-3292.605,-5707.62
-32642.414999999997,-77378.12999999999,-34032.015,-27696.735,-29189.385,-33941.34,-3273.2999999999997,-5704.5599999999995
-32624.504999999997,-77365.575,-34167.465,-27656.91,-28968.57,-33791.715,-3297.87,-5708.429999999999
-32580.36,-77287.59,-34099.515,-27584.91,-29259.495,-34054.02,-3291.345,-5686.74
-32556.87,-77253.435,-34120.17,-27437.535,-29330.504999999997,-34186.005,-3302.145,-5678.955
-32555.925,-77238.855,-33910.065,-27634.545,-29249.504999999997,-33969.24,-3306.69,-5682.195
-32551.559999999998,-77194.305,-33648.975,-27640.664999999997,-29304.675,-34087.32,-3315.015,-5683.365
-32577.93,-77283.0,-33876.9,-27466.649999999998,-29114.954999999998,-33953.94,-3317.7149999999997,-5691.014999999999
-32617.305,-77421.06,-34268.534999999996,-27618.21,-28997.414999999997,-33600.33,-3300.93,-5689.8
-32604.21,-77437.44,-34491.195,-27834.164999999997,-29391.164999999997,-34221.825,-3260.16,-5660.19
-32567.085,-77308.965,-34230.645,-27654.84,-29520.629999999997,-34413.975,-3304.305,-5664.24
-32567.625,-77267.7,-33959.835,-27598.59,-29262.149999999998,-34040.07,-3318.2549999999997,-5670.405
-32575.59,-77308.47,-34024.545,-27728.504999999997,-29299.32,-34125.705,-3295.62,-5665.05
-32598.405,-77425.605,-34431.39,-27760.32,-29205.495,-34031.744999999995,-3285.27,-5663.295
-32626.485,-77516.325,-34666.424999999996,-27798.21,-29124.855,-33843.555,-3295.5299999999997,-5671.53
-32585.805,-77334.25499999999,-34103.565,-27715.86,-29144.295,-34109.865,-3327.705,-5684.715
-32539.995,-77187.69,-33656.04,-27682.695,-29389.364999999998,-34462.89,-3313.7549999999997,-5671.17
-32573.52,-77301.045,-33935.625,-27602.73,-29558.475,-34166.115,-3292.245,-5675.355
-32565.42,-77351.58,-34148.385,-27610.875,-29355.434999999998,-34017.525,-3298.95,-5656.23
-32553.719999999998,-77297.67,-33984.674999999996,-27564.93,-29216.024999999998,-33825.555,-3336.12,-5661.9
-32558.445,-77337.81,-34145.369999999995,-27499.59,-29105.19,-33883.11,-3317.895,-5640.929999999999
-32568.57,-77445.27,-34485.255,-27790.829999999998,-29375.235,-34481.159999999996,-3267.9449999999997,-5609.429999999999
-32593.815,-77426.415,-34268.49,-27933.03,-29532.105,-34272.945,-3285.4049999999997,-5638.95
-32558.579999999998,-77293.08,-33933.915,-27807.75,-29526.39,-34159.725,-3308.49,-5650.514999999999
-32540.94,-77313.33,-34127.865,-27521.64,-29223.765,-33913.979999999996,-3327.345,-5640.75
-32564.789999999997,-77453.45999999999,-34575.39,-27431.64,-28934.414999999997,-33745.815,-3322.17,-5635.53
-32571.765,-77457.33,-34516.665,-27651.105,-29265.12,-34237.26,-3282.2549999999997,-5635.9349999999995
-32521.094999999998,-77245.245,-33889.59,-27634.725,-29542.635,-34361.549999999996,-3319.515,-5644.665
-32496.344999999998,-77156.955,-33694.83,-27632.7,-29350.395,-34052.895,-3339.765,-5645.115
-32562.315,-77392.305,-34247.7,-27665.864999999998,-29237.445,-33890.85,-3293.595,-5625.495
-32632.065,-77632.605,-34854.165,-28028.835,-29134.934999999998,-33859.08,-3260.79,-5624.82
-32571.495,-77452.245,-34560.18,-28231.605,-29519.594999999998,-34404.345,-3291.2549999999997,-5625.224999999999
-32483.925,-77110.155,-33631.244999999995,-27913.59,-29633.67,-34394.895,-3357.855,-5636.025
-32459.67,-77004.36,-33221.97,-27178.02,-29186.504999999997,-34033.095,-3389.7149999999997,-5643.315
-32454.09,-77102.81999999999,-33568.604999999996,-27265.905,-29279.745,-34021.845,-3340.08,-5610.105
-32473.844999999998,-77213.06999999999,-33849.135,-27451.8,-29272.23,-33952.77,-3321.99,-5603.4
-32492.61,-77273.81999999999,-33976.799999999996,-27523.44,-29195.325,-33952.994999999995,-3323.0699999999997,-5606.865
-32499.18,-77267.16,-33967.755,-27495.495,-28958.579999999998,-33998.67,-3338.37,-5615.505
-32522.309999999998,-77353.965,-34238.924999999996,-27540.0,-29165.445,-33959.565,-3323.43,-5611.094999999999
-32606.864999999998,-77542.56,-34598.52,-27718.2,-28932.614999999998,-33538.635,-3310.02,-5644.125
-32565.69,-77454.855,-34390.17,-28222.2,-29650.77,-34559.64,-3259.5299999999997,-5601.554999999999
-32501.789999999997,-77213.205,-33798.42,-27765.045,-29829.329999999998,-34428.015,-3336.435,-5613.03
-32503.274999999998,-77240.43,-33887.205,-27441.27,-29421.495,-34029.674999999996,-3356.055,-5613.57
-32537.114999999998,-77431.455,-34395.615,-27622.44,-29318.625,-34007.04,-3312.765,-5596.74
-32506.065,-77466.06,-34700.534999999996,-27800.37,-29436.164999999997,-34296.795,-3298.815,-5569.29
-32480.73,-77344.69499999999,-34364.07,-27781.965,-29443.23,-34201.305,-3336.525,-5592.825
-32486.355,-77242.995,-33914.159999999996,-27529.02,-29325.015,-34035.255,-3353.895,-5621.715
-32503.41,-77239.845,-33817.409999999996,-27446.67,-29133.989999999998,-33775.47,-3365.595,-5635.215
-32480.504999999997,-77212.215,-33832.44,-27532.71,-29074.545,-33760.845,-3360.645,-5608.44
-32471.91,-77250.78,-34122.465,-27549.09,-29511.719999999998,-34587.765,-3291.48,-5573.25
-32506.065,-77300.81999999999,-34145.369999999995,-27573.39,-29352.329999999998,-34105.095,-3326.805,-5604.48
-32512.32,-77312.16,-34013.159999999996,-27915.795,-29427.03,-34098.255,-3310.605,-5590.349999999999
-32512.545,-77337.72,-33988.725,-27746.82,-29433.329999999998,-34193.205,-3328.1099999999997,-5576.715
-32516.324999999997,-77376.06,-34173.09,-27697.364999999998,-29246.67,-34086.465,-3332.745,-5578.065
-32531.805,-77415.525,-34234.11,-27834.795,-29300.579999999998,-33811.604999999996,-3351.645,-5598.63
-32490.855,-77300.09999999999,-33963.795,-27521.46,-29158.155,-34090.784999999996,-3366.315,-5597.1449999999995
-32443.739999999998,-77278.905,-34140.015,-27600.48,-29706.254999999997,-34813.755,-3291.21,-5546.205
-32451.254999999997,-77268.105,-34104.195,-27739.44,-29431.62,-33904.305,-3353.7599999999998,-5569.605
-32458.815,-77220.495,-33838.83,-27599.805,-29283.885,-33907.005,-3358.5299999999997,-5582.88
-32457.239999999998,-77230.44,-33917.85,-27500.039999999997,-29279.295,-33976.485,-3345.075,-5569.65
-32471.145,-77298.165,-34150.32,-27589.77,-29296.44,-33987.015,-3333.06,-5560.0199999999995
-32510.835,-77406.03,-34360.065,-27686.7,-29277.495,-34021.395,-3322.62,-5566.005
-32525.73,-77436.36,-34372.17,-27817.379999999997,-29344.86,-33909.525,-3339.6749999999997,-5574.915
-32510.024999999998,-77361.84,-34282.845,-27488.25,-29211.39,-34072.875,-3362.58,-5591.969999999999
-32463.18,-77286.015,-34152.705,-27403.695,-29225.565,-34156.619999999995,-3369.7799999999997,-5578.335
-32425.739999999998,-77184.62999999999,-33775.965,-27720.989999999998,-29406.914999999997,-34180.244999999995,-3353.805,-5557.905
-32434.065,-77170.00499999999,-33700.455,-27480.239999999998,-29256.344999999998,-33950.34,-3373.785,-5570.55
-32436.18,-77240.925,-33934.905,-27485.145,-29166.344999999998,-34073.28,-3360.105,-5549.13
-32440.905,-77283.72,-34085.159999999996,-27532.17,-29331.675,-34235.505,-3333.06,-5536.8
-32493.015,-77425.605,-34432.515,-27601.649999999998,-29209.545,-33971.76,-3326.535,-5546.79
-32512.59,-77428.485,-34387.38,-27851.445,-29299.364999999998,-33852.06,-3333.645,-5561.73
-32460.344999999998,-77303.565,-34084.485,-27943.065,-29703.059999999998,-34376.04,-3319.9649999999997,-5529.599999999999
-32486.715,-77397.12,-34443.63,-27677.655,-29223.945,-34098.435,-3352.545,-5544.495
-32485.77,-77434.245,-34499.655,-27674.504999999997,-29199.78,-33976.71,-3358.44,-5537.34
-32455.8,-77314.23,-34110.674999999996,-27822.465,-29617.695,-34056.18,-3361.3199999999997,-5541.03
-32394.42,-77124.69,-33823.395,-27372.914999999997,-29375.774999999998,-34311.15,-3382.6949999999997,-5547.6449999999995
-32414.489999999998,-77234.625,-34063.92,-27394.2,-29327.67,-34078.545,-3355.29,-5536.08
-32471.414999999997,-77347.75499999999,-34032.78,-27687.239999999998,-29082.465,-33873.435,-3349.2599999999998,-5549.219999999999
-32462.28,-77357.34,-34081.02,-27848.34,-29285.37,-34258.635,-3328.245,-5516.28
-32442.254999999997,-77308.155,-34133.04,-27654.795,-29638.215,-34441.424999999996,-3337.29,-5511.915
-32445.539999999997,-77266.26,-34059.78,-27594.09,-29444.715,-34024.095,-3364.9649999999997,-5534.1449999999995
-32464.035,-77325.03,-34096.994999999995,-27913.23,-29396.25,-34069.005,-3339.315,-5522.04
-32472.315,-77291.50499999999,-34004.52,-28084.14,-29670.57,-34087.725,-3332.115,-5536.215
-32437.485,-77166.765,-33729.705,-27648.719999999998,-29598.57,-34168.545,-3370.23,-5543.505
-32418.27,-77146.73999999999,-33684.93,-27359.91,-29410.379999999997,-34083.945,-3384.9,-5545.53
-32404.364999999998,-77179.86,-33797.115,-27390.015,-29236.77,-33905.79,-3368.3849999999998,-5528.79
-32398.829999999998,-77212.305,-33900.479999999996,-27453.69,-29204.414999999997,-33971.49,-3368.115,-5516.73
-32402.34,-77249.745,-34020.36,-27511.829999999998,-29195.82,-33967.665,-3366.585,-5506.875
-32419.844999999998,-77317.69499999999,-34238.97,-27550.754999999997,-29232.315,-33856.65,-3367.845,-5502.78
-32448.87,-77398.83,-34579.08,-27422.82,-29154.285,-33590.835,-3386.43,-5505.705
-32445.945,-77430.645,-34618.095,-27889.965,-29548.305,-34573.365,-3311.865,-5468.67
-32477.219999999998,-77443.02,-34461.225,-28190.7,-29458.395,-34237.845,-3336.615,-5504.085
-32454.0,-77402.7,-34400.97,-27786.105,-29061.945,-33775.83,-3401.865,-5506.065
-32409.405,-77288.12999999999,-34137.72,-27640.395,-29196.765,-34369.604999999996,-3392.8199999999997,-5492.835
-32401.44,-77258.11499999999,-34026.075,-27688.05,-29561.985,-34456.815,-3349.395,-5487.12
-32403.914999999997,-77275.575,-34035.93,-27892.35,-29630.16,-34034.265,-3342.06,-5486.804999999999
-32407.065,-77201.86499999999,-33751.17,-27653.805,-29689.379999999997,-34206.525,-3366.18,-5513.49
-32409.27,-77202.765,-33826.905,-27318.735,-29292.704999999998,-34059.6,-3384.3599999999997,-5519.5199999999995
-32409.405,-77266.75499999999,-34016.58,-27431.46,-29238.164999999997,-34087.32,-3360.87,-5494.5
-32410.215,-77269.00499999999,-33961.32,-27725.489999999998,-29489.76,-34112.61,-3356.775,-5483.79
-32400.27,-77238.765,-33954.525,-27804.645,-29577.195,-34145.865,-3374.145,-5481.2699999999995
-32382.539999999997,-77167.575,-33795.674999999996,-27572.489999999998,-29442.329999999998,-34068.42,-3407.1299999999997,-5488.965
-32383.62,-77181.03,-33813.54,-27396.225,-29294.684999999998,-33947.325,-3400.83,-5485.41
