ch_0,ch_1,ch_2,ch_3,ch_4,ch_5,ch_6,ch_7
-95082.705,-110795.67,-87128.955,-96571.8,-97231.14,-111944.61,-24726.42,-77549.84999999999
-95084.14499999999,-110767.905,-87156.045,-96602.89499999999,-97259.12999999999,-111970.89,-24722.594999999998,-77558.48999999999
-95063.805,-110804.67,-87172.33499999999,-96589.08,-97239.59999999999,-111945.33,-24717.465,-77547.42
-95079.33,-110888.45999999999,-87185.205,-96578.955,-97212.015,-111917.79,-24695.55,-77530.23
-95126.175,-110903.12999999999,-87188.22,-96587.01,-97203.69,-111915.72,-24662.52,-77515.69499999999
-95163.93,-110898.72,-87215.22,-96611.44499999999,-97212.95999999999,-111929.84999999999,-24631.065,-77506.83
-95178.33,-110927.025,-87239.51999999999,-96636.555,-97234.65,-111955.275,-24597.27,-77503.815
-95142.78,-110886.795,-87214.36499999999,-96629.04,-97244.73,-111967.37999999999,-24596.594999999998,-77507.145
-95119.605,-110888.55,-87225.795,-96635.655,-97264.305,-111986.09999999999,-24593.579999999998,-77521.05
-95085.9,-110852.55,-87189.075,-96608.745,-97265.79,-111982.545,-24613.739999999998,-77542.02
-95054.805,-110805.795,-87147.495,-96580.215,-97256.565,-111970.75499999999,-24640.829999999998,-77549.58
-95050.26,-110814.84,-87156.675,-96571.305,-97247.79,-111958.01999999999,-24652.62,-77551.33499999999
-95081.58,-110828.79,-87165.94499999999,-96575.535,-97241.12999999999,-111951.765,-24636.6,-77549.48999999999
-95127.795,-110849.58,-87181.01999999999,-96601.635,-97251.39,-111970.70999999999,-24603.524999999998,-77547.23999999999
-95125.095,-110851.01999999999,-87190.155,-96608.565,-97239.78,-111964.095,-24579.135,-77529.23999999999
-95164.155,-110886.705,-87222.105,-96636.915,-97247.79,-111977.64,-24544.17,-77511.555
-95182.245,-110905.47,-87228.135,-96641.73,-97254.36,-111980.87999999999,-24519.015,-77508.495
-95202.98999999999,-110929.23,-87247.44,-96662.06999999999,-97279.425,-112005.495,-24495.84,-77516.09999999999
-95180.805,-110915.595,-87239.51999999999,-96661.305,-97294.41,-112016.87999999999,-24498.315,-77527.08
-95130.405,-110862.62999999999,-87197.22,-96628.185,-97283.83499999999,-111997.845,-24527.07,-77540.04
-95103.315,-110833.065,-87173.235,-96609.735,-97279.155,-111988.17,-24548.445,-77552.64
-95085.81,-110809.845,-87163.245,-96599.655,-97277.22,-111981.69,-24561.18,-77561.50499999999
-95102.28,-110800.305,-87160.275,-96599.61,-97269.25499999999,-111974.89499999999,-24556.32,-77563.845
-95154.84,-110854.305,-87187.31999999999,-96625.125,-97276.05,-111987.54,-24519.51,-77553.315
-95158.845,-110874.78,-87175.125,-96606.72,-97243.875,-111954.23999999999,-24499.62,-77538.42
-95194.17,-110920.68,-87238.575,-96650.685,-97257.915,-111979.44,-24454.575,-77525.415
-95178.64499999999,-110906.73,-87256.575,-96652.17,-97253.73,-111974.89499999999,-24434.91,-77516.50499999999
-95181.03,-110934.54,-87264.495,-96655.995,-97266.51,-111987.315,-24418.17,-77523.03
-95145.48,-110936.295,-87233.265,-96633.94499999999,-97267.455,-111983.44499999999,-24426.54,-77535.855
-95111.64,-110860.29,-87205.455,-96624.45,-97275.105,-111986.50499999999,-24449.04,-77545.53
-95119.29,-110829.28499999999,-87208.37999999999,-96642.22499999999,-97303.68,-112014.765,-24454.395,-77559.84
-95089.995,-110802.735,-87177.87,-96619.455,-97291.62,-111996.09,-24478.29,-77565.42
-95115.87,-110816.14499999999,-87170.265,-96624.22499999999,-97286.76,-111992.58,-24467.129999999997,-77559.25499999999
-95191.69499999999,-110826.36,-87184.665,-96637.31999999999,-97277.535,-111981.42,-24436.62,-77548.68
-95230.305,-110855.925,-87202.485,-96641.09999999999,-97261.56,-111964.68,-24403.364999999998,-77535.315
-95222.43,-110968.83,-87247.215,-96650.235,-97251.12,-111955.455,-24367.32,-77522.22
-95216.715,-111039.345,-87292.39499999999,-96669.72,-97257.64499999999,-111966.795,-24332.579999999998,-77514.795
-95186.47499999999,-110951.14499999999,-87291.405,-96677.14499999999,-97273.89,-111986.055,-24332.219999999998,-77514.525
-95184.045,-110946.19499999999,-87287.175,-96696.675,-97314.435,-112034.565,-24322.545,-77524.73999999999
-95178.015,-110966.08499999999,-87261.3,-96678.9,-97328.655,-112050.765,-24331.95,-77536.62
-95132.205,-110890.89,-87236.86499999999,-96647.4,-97313.805,-112027.14,-24363.315,-77544.36
-95124.23999999999,-110865.33,-87213.915,-96635.87999999999,-97309.665,-112016.79,-24376.14,-77550.61499999999
-95129.19,-110879.235,-87197.985,-96632.50499999999,-97302.735,-112010.48999999999,-24370.605,-77552.73
-95181.66,-110905.37999999999,-87235.37999999999,-96665.89499999999,-97314.39,-112030.245,-24334.649999999998,-77545.485
-95196.64499999999,-110900.83499999999,-87241.68,-96669.0,-97301.745,-112015.75499999999,-24315.03,-77529.78
-95238.09,-110939.04,-87263.64,-96695.45999999999,-97312.545,-112034.565,-24279.48,-77521.68
-95217.93,-110945.97,-87268.36499999999,-96694.92,-97307.055,-112029.165,-24255.719999999998,-77508.18
-95187.87,-110955.23999999999,-87283.62,-96695.415,-97307.91,-112027.76999999999,-24247.17,-77506.605
-95181.345,-110969.50499999999,-87299.81999999999,-96696.58499999999,-97318.08,-112036.815,-24244.739999999998,-77513.94
-95176.935,-110953.89,-87287.175,-96699.78,-97344.045,-112059.765,-24252.84,-77533.92
-95157.855,-110895.20999999999,-87236.09999999999,-96670.89,-97340.715,-112047.61499999999,-24280.02,-77545.89
-95168.79,-110883.015,-87233.805,-96670.665,-97341.12,-112046.355,-24285.239999999998,-77551.56
-95179.23,-110896.155,-87245.055,-96680.11499999999,-97342.37999999999,-112047.84,-24275.835,-77549.715
-95208.84,-110928.95999999999,-87252.93,-96690.64499999999,-97335.98999999999,-112044.33,-24253.695,-77538.95999999999
-95246.19,-110950.92,-87263.235,-96699.69,-97324.92,-112036.05,-24224.67,-77526.765
-95272.245,-110982.915,-87302.925,-96718.905,-97323.25499999999,-112036.455,-24190.785,-77517.62999999999
-95302.34999999999,-111021.39,-87336.58499999999,-96744.51,-97337.205,-112055.76,-24153.12,-77516.28
-95276.43,-111003.48,-87308.955,-96721.65,-97330.31999999999,-112044.42,-24151.995,-77519.295
-95258.79,-110957.94,-87295.36499999999,-96710.58,-97331.48999999999,-112039.515,-24160.545,-77532.61499999999
-95234.67,-110950.515,-87302.925,-96715.89,-97351.785,-112055.265,-24165.45,-77553.765
-95201.01,-110923.83,-87286.00499999999,-96713.73,-97367.175,-112069.53,-24179.76,-77568.165
-95195.11499999999,-110918.06999999999,-87275.745,-96705.405,-97369.69499999999,-112069.89,-24188.399999999998,-77572.395
-95197.5,-110938.995,-87281.81999999999,-96707.43,-97366.815,-112068.315,-24178.995,-77566.545
-95203.39499999999,-110953.34999999999,-87293.51999999999,-96713.595,-97359.97499999999,-112064.94,-24158.385,-77552.325
-95208.39,-110966.805,-87284.25,-96712.01999999999,-97347.51,-112062.23999999999,-24135.48,-77530.86
-95254.965,-111000.06,-87314.08499999999,-96748.37999999999,-97368.75,-112090.635,-24095.295,-77523.525
-95253.39,-110965.40999999999,-87314.94,-96747.12,-97363.98,-112082.58,-24080.04,-77518.215
-95278.31999999999,-110988.0,-87337.125,-96767.595,-97382.025,-112102.29,-24056.864999999998,-77523.165
-95268.64499999999,-111004.515,-87322.41,-96757.245,-97389.9,-112105.53,-24057.09,-77536.035
-95245.56,-110957.58,-87308.19,-96752.47499999999,-97405.83,-112118.89499999999,-24071.579999999998,-77552.64
-95211.765,-110933.64,-87292.17,-96728.76,-97399.215,-112101.39,-24093.135,-77567.355
-95180.58,-110896.965,-87244.11,-96678.62999999999,-97359.705,-112050.315,-24120.989999999998,-77577.75
-95177.655,-110947.095,-87236.595,-96667.83,-97341.56999999999,-112031.86499999999,-24113.61,-77575.5
-95171.265,-110992.31999999999,-87223.36499999999,-96645.465,-97308.405,-111999.33,-24101.73,-77556.555
-95153.76,-110944.89,-87244.155,-96655.095,-97295.48999999999,-111993.705,-24077.835,-77542.69499999999
-95171.22,-110940.61499999999,-87302.87999999999,-96700.635,-97314.705,-112022.595,-24039.629999999997,-77536.125
-95209.11,-110962.305,-87318.045,-96721.29,-97330.00499999999,-112047.165,-24007.364999999998,-77528.11499999999
-95220.62999999999,-110969.14499999999,-87308.86499999999,-96720.885,-97340.94,-112058.73,-23993.37,-77531.4
-95209.29,-110962.44,-87286.59,-96704.55,-97342.29,-112054.23,-23997.87,-77541.39
-95170.545,-110910.51,-87240.105,-96667.56,-97326.855,-112029.03,-24025.364999999998,-77553.405
-95154.525,-110862.405,-87217.65,-96657.75,-97329.59999999999,-112029.03,-24044.715,-77567.94
-95161.095,-110871.045,-87220.665,-96667.605,-97341.56999999999,-112041.36,-24045.48,-77578.69499999999
-95159.925,-110870.415,-87206.22,-96655.31999999999,-97326.315,-112024.89,-24052.995,-77572.62
-95204.61,-110935.26,-87256.845,-96699.87,-97344.765,-112052.655,-24007.004999999997,-77551.065
-95209.515,-110946.555,-87266.34,-96705.675,-97338.33,-112049.325,-23976.809999999998,-77531.31
-95244.03,-110965.86,-87291.58499999999,-96734.745,-97352.325,-112072.00499999999,-23939.235,-77524.37999999999
-95232.51,-110961.765,-87291.045,-96732.94499999999,-97346.11499999999,-112065.84,-23919.524999999998,-77512.36499999999
-95228.055,-110970.94499999999,-87300.9,-96730.47,-97345.935,-112058.86499999999,-23908.995,-77512.905
-95240.745,-110995.155,-87327.45,-96743.47499999999,-97364.43,-112069.665,-23896.89,-77524.65
-95246.37,-110976.705,-87299.415,-96717.87,-97359.12,-112049.055,-23914.575,-77545.89
-95192.50499999999,-110925.22499999999,-87251.94,-96674.94,-97334.19,-112017.555,-23946.344999999998,-77559.3
-95159.11499999999,-110905.01999999999,-87249.23999999999,-96667.065,-97324.47,-112006.98,-23961.329999999998,-77562.58499999999
-95174.37,-110899.44,-87252.3,-96682.995,-97333.37999999999,-112028.58,-23959.844999999998,-77559.93
-95213.79,-110938.545,-87289.155,-96723.315,-97357.905,-112067.81999999999,-23920.245,-77548.05
-95224.905,-110950.875,-87290.01,-96721.515,-97345.26,-112053.555,-23894.325,-77529.015
-95265.045,-110965.23,-87303.64499999999,-96731.09999999999,-97343.50499999999,-112054.5,-23863.364999999998,-77518.845
-95305.545,-111000.19499999999,-87345.98999999999,-96771.59999999999,-97371.0,-112093.065,-23820.93,-77514.03
-95279.89499999999,-111019.545,-87355.035,-96775.065,-97381.935,-112102.245,-23808.555,-77515.11
-95243.715,-110979.98999999999,-87331.23,-96752.47499999999,-97376.76,-112089.51,-23820.48,-77517.765
-95243.22,-110963.025,-87308.81999999999,-96740.86499999999,-97384.545,-112092.705,-23833.71,-77531.04
-95239.035,-110967.84,-87299.86499999999,-96739.47,-97398.26999999999,-112105.98,-23842.575,-77549.48999999999
-95203.39499999999,-110957.22,-87281.37,-96721.2,-97387.785,-112090.545,-23857.155,-77550.345
-95222.745,-110977.965,-87296.58,-96725.43,-97377.56999999999,-112078.53,-23849.82,-77541.705
-95266.62,-111012.56999999999,-87336.0,-96755.94,-97384.815,-112088.25,-23817.239999999998,-77533.875
-95253.61499999999,-111017.43,-87330.69,-96753.105,-97365.95999999999,-112069.75499999999,-23793.614999999998,-77517.81
-95312.655,-111037.815,-87388.29,-96810.20999999999,-97397.415,-112112.955,-23746.725,-77504.895
-95337.09,-111015.26999999999,-87385.36499999999,-96819.39,-97409.7,-112128.12,-23725.305,-77497.73999999999
-95368.23,-111056.44499999999,-87401.205,-96826.23,-97418.51999999999,-112135.815,-23704.469999999998,-77502.06
-95327.81999999999,-111106.75499999999,-87372.36,-96774.39,-97389.62999999999,-112091.58,-23717.565,-77507.28
-95281.47,-111112.875,-87337.39499999999,-96738.525,-97378.875,-112075.11,-23740.155,-77523.03
-95236.56,-111073.36499999999,-87334.01999999999,-96739.83,-97389.495,-112089.69,-23754.375,-77532.84
-95228.685,-110989.17,-87342.84,-96759.0,-97408.34999999999,-112110.12,-23764.05,-77539.36499999999
-95246.415,-110983.68,-87348.555,-96781.275,-97428.87,-112138.69499999999,-23753.07,-77534.055
-95288.89499999999,-111031.69499999999,-87382.89,-96817.68,-97452.18,-112173.20999999999,-23715.09,-77522.265
-95305.815,-111043.08,-87388.29,-96817.635,-97440.39,-112162.545,-23688.18,-77506.245
-95366.7,-111079.935,-87424.73999999999,-96859.34999999999,-97458.525,-112186.53,-23645.835,-77499.58499999999
-95407.785,-111098.87999999999,-87442.73999999999,-96887.11499999999,-97480.035,-112209.48,-23612.309999999998,-77495.175
-95405.175,-111101.89499999999,-87439.00499999999,-96885.495,-97489.39499999999,-112214.61,-23601.059999999998,-77502.645
-95381.64,-111107.83499999999,-87422.31,-96864.345,-97486.73999999999,-112203.495,-23608.305,-77517.72
-95346.72,-111101.22,-87395.44499999999,-96833.11499999999,-97475.84999999999,-112182.25499999999,-23629.68,-77534.09999999999
-95282.64,-111032.595,-87349.31999999999,-96794.955,-97456.68,-112154.31,-23663.835,-77544.22499999999
-95260.76999999999,-110994.56999999999,-87341.84999999999,-96793.515,-97458.165,-112156.155,-23675.219999999998,-77549.12999999999
-95281.875,-111026.79,-87368.265,-96814.305,-97469.415,-112170.23999999999,-23658.795,-77546.52
-95295.33,-111050.73,-87369.795,-96807.15,-97450.47,-112151.06999999999,-23641.559999999998,-77527.34999999999
-95319.09,-111061.75499999999,-87375.23999999999,-96802.92,-97429.23,-112132.70999999999,-23621.355,-77514.795
-95353.69499999999,-111097.39499999999,-87422.58,-96836.48999999999,-97439.67,-112152.87,-23578.695,-77500.98
-95404.31999999999,-111123.98999999999,-87468.345,-96879.285,-97469.64,-112192.56,-23534.19,-77493.15
-95398.73999999999,-111110.625,-87452.19,-96868.62,-97471.125,-112190.53499999999,-23528.79,-77492.745
-95372.81999999999,-111124.125,-87444.135,-96866.685,-97481.205,-112194.855,-23530.5,-77500.44
-95360.31,-111106.575,-87437.565,-96873.25499999999,-97504.92,-112213.665,-23536.665,-77520.23999999999
-95336.685,-111047.04,-87398.28,-96847.47,-97499.385,-112199.985,-23563.89,-77534.81999999999
-95338.215,-111021.03,-87382.70999999999,-96838.875,-97496.45999999999,-112197.64499999999,-23578.155,-77544.045
-95352.61499999999,-111013.92,-87379.92,-96842.47499999999,-97496.685,-112198.59,-23573.204999999998,-77546.06999999999
-95390.86499999999,-111050.81999999999,-87402.825,-96865.965,-97508.25,-112218.12,-23541.21,-77537.025
-95372.19,-111100.05,-87419.025,-96852.15,-97478.14499999999,-112182.165,-23518.26,-77515.785
-95390.685,-111222.45,-87479.14499999999,-96873.03,-97468.425,-112174.515,-23472.719999999998,-77500.395
-95391.54,-111243.33,-87506.50499999999,-96896.025,-97481.295,-112193.37,-23440.004999999997,-77490.495
-95409.09,-111176.595,-87493.545,-96909.705,-97505.81999999999,-112221.94499999999,-23430.6,-77495.08499999999
-95390.14499999999,-111155.265,-87458.805,-96896.97,-97516.89,-112228.47,-23438.52,-77508.855
-95369.94,-111120.84,-87432.525,-96881.58,-97524.765,-112229.775,-23464.125,-77526.765
-95349.19499999999,-111090.375,-87437.655,-96872.89499999999,-97525.44,-112224.105,-23477.715,-77539.905
-95328.18,-111065.44499999999,-87426.045,-96859.98,-97517.47499999999,-112211.86499999999,-23487.704999999998,-77550.705
-95316.20999999999,-111043.53,-87412.00499999999,-96858.26999999999,-97512.345,-112207.68,-23488.469999999998,-77551.875
-95334.525,-111097.485,-87423.61499999999,-96859.44,-97498.485,-112196.655,-23464.89,-77534.955
-95333.175,-111119.265,-87414.61499999999,-96834.825,-97462.53,-112161.64499999999,-23445.0,-77516.955
-95397.39,-111100.00499999999,-87449.89499999999,-96878.16,-97484.265,-112194.94499999999,-23407.29,-77512.41
-95430.59999999999,-111123.54,-87458.48999999999,-96894.045,-97495.965,-112210.65,-23375.295,-77505.345
-95421.51,-111130.065,-87445.125,-96881.89499999999,-97490.655,-112203.54,-23368.41,-77501.745
-95406.61499999999,-111171.465,-87467.805,-96893.73,-97507.39499999999,-112215.555,-23359.32,-77512.14
-95376.06,-111204.045,-87461.86499999999,-96874.785,-97505.595,-112205.565,-23371.425,-77526.495
