ch_0,ch_1,ch_2,ch_3,ch_4,ch_5,ch_6,ch_7
20781.675,-13431.42,-10575.404999999999,-30981.059999999998,-48539.115,-27122.129999999997,39280.005,167245.91999999998
20720.16,-13475.699999999999,-10584.09,-31002.12,-48207.689999999995,-27008.774999999998,39204.405,167368.54499999998
20728.844999999998,-13427.414999999999,-10502.279999999999,-30903.03,-48063.96,-26779.905,39128.939999999995,167499.85499999998
20745.36,-13440.105,-10631.88,-30820.86,-48007.215,-26952.57,39072.06,167634.27
20758.77,-13454.505,-10782.494999999999,-30896.774999999998,-47872.395,-27114.66,38998.35,167773.22999999998
20746.62,-13503.105,-10791.81,-31062.465,-48041.955,-27181.664999999997,38923.47,167909.535
20693.835,-13537.71,-10675.664999999999,-30973.949999999997,-48091.905,-27105.254999999997,38867.625,168043.59
20686.725,-13491.945,-10570.815,-30825.0,-48214.305,-26967.105,38807.729999999996,168173.505
20743.469999999998,-13359.465,-10481.58,-30814.379999999997,-48468.509999999995,-26959.32,38729.61,168295.59
20728.305,-13383.225,-10638.675,-31022.1,-48396.465,-27156.78,38672.685,168416.32499999998
20749.5,-13380.345,-10641.779999999999,-31129.649999999998,-48522.33,-27178.245,38599.02,168538.54499999998
20787.12,-13384.619999999999,-10562.22,-31101.39,-48833.28,-27263.07,38535.57,168660.18
20689.155,-13519.98,-10580.13,-30787.02,-47975.805,-27312.75,38444.985,168786.495
20662.605,-13488.975,-10599.93,-30638.25,-47132.729999999996,-27001.754999999997,38371.635,168915.87
20723.085,-13413.644999999999,-10723.77,-30760.965,-47353.545,-26872.379999999997,38298.284999999996,169032.555
20745.225,-13409.505,-10829.744999999999,-30827.655,-47731.455,-26901.495,38216.61,169148.97
20690.235,-13496.805,-10763.369999999999,-30880.485,-48113.82,-26973.675,38171.295,169267.41
20662.875,-13487.31,-10518.57,-30901.32,-48493.755,-27020.07,38098.26,169384.94999999998
20700.405,-13414.095,-10336.904999999999,-30926.204999999998,-48528.854999999996,-27050.129999999997,38018.295,169506.36
20770.38,-13355.1,-10388.115,-30999.87,-48554.1,-27144.855,37943.145,169629.345
20739.78,-13359.33,-10476.63,-30864.015,-48260.159999999996,-27156.555,37868.715,169755.07499999998
20696.219999999998,-13395.015,-10545.435,-30874.86,-48232.53,-27092.655,37819.89,169894.88999999998
20777.04,-13305.42,-10558.125,-31184.145,-49017.6,-27023.309999999998,37740.51,170028.13499999998
20834.145,-13298.265,-10531.619999999999,-31251.6,-49398.659999999996,-27209.789999999997,37669.545,170165.38499999998
20770.469999999998,-13418.055,-10460.88,-30880.395,-48751.604999999996,-27560.204999999998,37614.6,170313.3
20566.98,-13656.869999999999,-10587.33,-30675.239999999998,-47482.695,-27358.335,37540.71,170449.875
20539.62,-13637.295,-10679.58,-30737.655,-46985.174999999996,-26951.489999999998,37453.185,170575.02
20635.11,-13508.369999999999,-10612.71,-30771.495,-47311.38,-26809.695,37379.97,170691.3
20738.88,-13354.83,-10477.08,-30924.449999999997,-47820.015,-27009.45,37295.505,170807.085
20773.485,-13311.494999999999,-10426.904999999999,-30948.254999999997,-47933.369999999995,-27138.914999999997,37222.515,170931.41999999998
20652.165,-13473.269999999999,-10537.47,-30765.42,-47819.07,-27066.329999999998,37169.685,171064.845
20668.005,-13388.984999999999,-10456.515,-30658.23,-47939.715,-26910.495,37094.985,171211.995
20761.11,-13258.845,-10392.705,-30813.93,-48185.64,-26957.835,37011.33,171348.435
20779.559999999998,-13290.255,-10520.19,-31021.335,-48451.905,-26987.67,36950.534999999996,171471.915
20829.915,-13282.244999999999,-10566.09,-31173.704999999998,-49030.02,-27131.85,36885.465,171593.28
20791.89,-13371.255,-10558.845,-31020.344999999998,-49128.659999999996,-27488.969999999998,36812.385,171715.63499999998
20725.38,-13454.595,-10609.83,-30848.895,-48396.735,-27456.66,36733.185,171847.62
20670.434999999998,-13542.84,-10688.265,-30837.78,-48054.42,-27006.164999999997,36678.96,171986.085
20649.51,-13538.789999999999,-10664.955,-30890.16,-48049.515,-27015.344999999998,36599.13,172117.88999999998
20648.52,-13503.6,-10650.24,-30897.045,-48076.875,-27399.645,36539.189999999995,172249.56
20667.42,-13429.755,-10584.315,-30849.975,-47987.865,-27330.93,36464.76,172386.18
20697.434999999998,-13410.09,-10567.35,-31027.364999999998,-48260.61,-27093.555,36402.479999999996,172524.15
20690.82,-13493.564999999999,-10607.039999999999,-31119.39,-48401.189999999995,-27176.265,36343.845,172671.38999999998
20590.605,-13586.805,-10640.97,-30966.885,-47837.115,-27080.1,36288.674999999996,172827.315
20590.829999999998,-13497.39,-10664.64,-30930.164999999997,-47613.33,-27023.219999999998,36232.335,172979.28
20648.16,-13385.295,-10730.43,-31058.684999999998,-47957.715,-26923.59,36198.045,173130.255
20698.92,-13340.744999999999,-10760.22,-31112.28,-48311.369999999995,-27172.215,36140.534999999996,173269.8
20632.59,-13482.855,-10802.744999999999,-31035.78,-48431.52,-27202.364999999998,36093.195,173401.83
20603.7,-13562.82,-10710.99,-31006.079999999998,-48625.064999999995,-27135.629999999997,36034.02,173534.895
20537.82,-13624.109999999999,-10652.445,-30930.3,-48154.545,-27036.315,35979.119999999995,173666.115
20578.454999999998,-13481.189999999999,-10552.859999999999,-30906.539999999997,-47911.994999999995,-27077.579999999998,35932.095,173793.87
20681.46,-13291.65,-10413.18,-31000.32,-48506.31,-26955.539999999997,35866.485,173911.455
20631.96,-13375.574999999999,-10487.205,-30980.204999999998,-48378.42,-27092.925,35780.895,174018.15
20528.28,-13515.84,-10602.539999999999,-30816.225,-47647.979999999996,-27368.235,35729.055,174137.22
20534.04,-13475.699999999999,-10545.84,-30761.684999999998,-47437.335,-26993.925,35661.06,174263.805
20597.445,-13376.744999999999,-10461.914999999999,-30815.28,-47817.27,-26962.065,35602.47,174387.06
20616.344999999998,-13352.939999999999,-10459.305,-30917.879999999997,-48010.14,-27035.64,35562.33,174514.22999999998
20638.035,-13346.73,-10519.875,-31077.27,-48308.265,-26874.18,35501.445,174637.25999999998
20669.579999999998,-13384.98,-10696.32,-31256.37,-48708.72,-27213.344999999998,35437.905,174756.645
20527.245,-13597.425,-10888.695,-31000.32,-48184.784999999996,-27076.23,35370.585,174877.19999999998
20552.265,-13534.74,-10773.18,-30910.68,-48260.34,-26992.664999999997,35321.805,175004.32499999998
20547.765,-13550.67,-10685.925,-30935.879999999997,-48464.595,-27336.239999999998,35262.135,175125.375
20478.735,-13594.635,-10634.22,-30847.635,-47807.189999999995,-27312.66,35198.955,175250.34
20494.485,-13569.525,-10668.779999999999,-30953.114999999998,-47649.465,-27141.795,35148.645,175371.975
20576.295,-13447.98,-10708.515,-31077.809999999998,-48262.365,-27155.25,35082.36,175483.97999999998
20614.364999999998,-13365.63,-10632.24,-31077.18,-48601.845,-27181.125,35018.685,175583.61
20665.665,-13291.92,-10531.755,-31059.945,-48512.97,-27327.375,34931.115,175686.435
20543.985,-13449.644999999999,-10573.289999999999,-30884.715,-48137.445,-27175.23,34866.27,175799.29499999998
20473.875,-13493.07,-10534.23,-30802.32,-48129.39,-26997.344999999998,34823.744999999995,175919.985
20578.905,-13332.15,-10409.355,-30934.62,-48414.015,-27165.825,34761.33,176039.28
20610.36,-13332.195,-10472.265,-30997.664999999997,-48705.165,-27212.715,34691.354999999996,176156.72999999998
20544.795,-13458.824999999999,-10595.744999999999,-30934.62,-48723.255,-27151.559999999998,34612.11,176273.955
20522.79,-13541.039999999999,-10740.465,-30906.27,-48129.255,-27395.37,34547.445,176398.245
20490.704999999998,-13626.63,-10874.744999999999,-30975.795,-47436.119999999995,-27192.6,34500.69,176533.245
20436.704999999998,-13696.199999999999,-10955.34,-31005.09,-47418.299999999996,-26949.78,34450.92,176675.35499999998
20440.215,-13673.789999999999,-11139.795,-31071.329999999998,-47981.655,-26960.715,34388.055,176807.97
20420.055,-13694.715,-11281.725,-31159.62,-48061.08,-26934.12,34329.06,176944.86
20426.535,-13720.095,-11157.48,-31116.149999999998,-47653.244999999995,-26907.164999999997,34261.244999999995,177087.96
20562.165,-13542.164999999999,-10897.064999999999,-31130.82,-47776.77,-26962.02,34206.885,177239.29499999998
20558.88,-13428.314999999999,-10759.23,-31117.094999999998,-48106.845,-27044.37,34162.92,177393.195
20469.42,-13413.869999999999,-10609.335,-30994.649999999998,-48059.235,-27078.254999999997,34115.04,177536.78999999998
20475.36,-13342.455,-10431.27,-30935.16,-48112.02,-27125.82,34045.02,177672.15
20501.505,-13288.994999999999,-10250.19,-30796.02,-48480.84,-26909.37,33955.155,177804.13499999998
20561.579999999998,-13240.26,-10189.755,-30789.945,-48568.634999999995,-27128.61,33879.06,177934.68
20517.885,-13348.439999999999,-10331.91,-30914.82,-48231.72,-27362.024999999998,33831.135,178059.6
20498.895,-13375.664999999999,-10456.38,-30971.61,-47976.299999999996,-27089.954999999998,33758.46,178191.13499999998
20550.149999999998,-13302.539999999999,-10463.67,-31036.545,-48509.145,-26785.44,33691.95,178333.065
20532.42,-13313.835,-10498.68,-30957.795,-48532.229999999996,-27080.504999999997,33624.27,178481.835
20471.579999999998,-13380.615,-10548.99,-30788.504999999997,-47966.985,-27241.469999999998,33546.104999999996,178639.245
20491.875,-13366.215,-10493.865,-30688.425,-47743.29,-27053.504999999997,33457.275,178784.32499999998
20513.969999999998,-13414.545,-10528.65,-30823.379999999997,-48177.72,-27119.204999999998,33378.84,178928.775
20513.07,-13443.615,-10603.395,-31054.32,-48313.17,-27400.05,33298.2,179072.145
20457.495,-13437.269999999999,-10534.23,-30953.789999999997,-47938.365,-27142.289999999997,33216.119999999995,179232.21
20555.82,-13243.365,-10304.46,-30919.995,-48337.335,-27082.26,33140.34,179388.495
20634.3,-13147.244999999999,-10205.82,-30907.215,-48577.545,-26956.125,33034.5,179546.75999999998
20505.195,-13374.9,-10419.074999999999,-30829.725,-48300.57,-27092.34,32950.305,179698.22999999998
20416.905,-13531.904999999999,-10654.289999999999,-30720.105,-48012.479999999996,-27274.094999999998,32895.945,179871.07499999998
20456.37,-13514.49,-10825.154999999999,-30942.09,-48019.95,-27245.475,32850.18,180054.405
20421.0,-13567.635,-10915.47,-31105.125,-47869.65,-27137.114999999998,32804.1,180238.815
20397.555,-13556.789999999999,-10846.17,-31077.945,-47769.479999999996,-27077.579999999998,32736.465,180416.745
20405.52,-13535.144999999999,-10763.73,-31014.945,-47862.72,-27125.954999999998,32681.07,180605.38499999998
20374.649999999998,-13552.425,-10682.145,-30898.079999999998,-47749.59,-26982.855,32613.704999999998,180780.03
20364.704999999998,-13560.93,-10631.789999999999,-30849.704999999998,-47720.295,-26993.7,32564.879999999997,180964.62
20443.454999999998,-13472.73,-10613.789999999999,-30927.78,-47960.235,-27002.789999999997,32517.449999999997,181133.00999999998
20525.085,-13427.46,-10692.359999999999,-31113.539999999997,-48489.705,-27160.289999999997,32455.664999999997,181283.625
20489.445,-13539.824999999999,-10802.07,-31130.91,-48763.53,-27200.024999999998,32399.91,181434.10499999998
20417.895,-13695.48,-10903.185,-31098.69,-48427.92,-27369.629999999997,32361.614999999998,181589.22
20414.25,-13715.189999999999,-10991.34,-31220.594999999998,-47912.939999999995,-27254.43,32301.629999999997,181731.10499999998
20378.7,-13730.265,-10977.84,-31279.59,-47682.225,-26964.719999999998,32230.754999999997,181873.71
20319.39,-13686.39,-10842.66,-31203.629999999997,-47827.215,-26897.309999999998,32174.28,182013.255
20367.495,-13477.32,-10656.945,-31129.605,-48047.58,-26896.14,32088.914999999997,182147.03999999998
20468.565,-13286.115,-10452.96,-31108.454999999998,-48770.82,-26937.225,32023.934999999998,182287.53
20544.255,-13346.144999999999,-10549.845,-31146.48,-49439.025,-27020.34,31953.735,182417.13
20461.32,-13551.705,-10774.755,-31047.39,-48825.854999999996,-27415.844999999998,31889.385,182544.57
20380.68,-13569.525,-10721.97,-30680.055,-47512.53,-27506.114999999998,31825.305,182682.04499999998
20420.37,-13423.769999999999,-10556.865,-30740.715,-47243.25,-27146.565,31769.46,182810.655
20474.1,-13337.73,-10467.675,-31002.75,-47951.82,-27080.82,31724.82,182928.41999999998
20579.895,-13216.05,-10427.58,-31282.829999999998,-48948.03,-27132.12,31660.559999999998,183034.305
20607.12,-13231.89,-10455.795,-31263.39,-48988.215,-27437.355,31579.065,183156.345
20382.12,-13562.64,-10650.015,-30842.594999999998,-47803.5,-27343.98,31534.199999999997,183308.58
20292.344999999998,-13591.215,-10639.215,-30565.844999999998,-47223.134999999995,-27008.28,31475.295,183462.705
20410.785,-13478.715,-10616.22,-30830.715,-47740.814999999995,-26934.48,31417.785,183620.97
20448.63,-13494.465,-10655.46,-30960.225,-48146.759999999995,-26961.524999999998,31358.655,183773.475
20432.295,-13572.225,-10779.164999999999,-30905.73,-47920.095,-27124.155,31290.704999999998,183917.78999999998
20407.274999999998,-13606.289999999999,-10854.99,-30891.239999999998,-47494.17,-27041.805,31258.934999999998,184082.445
20465.46,-13496.31,-10833.795,-30921.795,-47550.915,-26825.355,31197.195,184234.63499999998
20511.36,-13401.449999999999,-10667.744999999999,-30975.614999999998,-47952.405,-26977.815,31145.129999999997,184372.83
20448.09,-13463.324999999999,-10581.345,-31021.02,-48116.7,-26992.44,31082.85,184503.91499999998
20424.375,-13462.515,-10533.015,-30970.71,-48175.515,-27185.985,31020.975,184654.71
20518.965,-13322.115,-10468.395,-31049.55,-48349.755,-27281.295,30958.02,184794.3
20540.835,-13342.455,-10522.664999999999,-31148.504999999997,-48457.799999999996,-27321.524999999998,30893.445,184943.52
20483.37,-13434.975,-10608.795,-31018.545,-48349.845,-27085.905,30832.155,185101.83
20478.105,-13444.83,-10620.135,-30910.77,-48220.02,-27152.235,30748.41,185251.86
20495.07,-13420.17,-10616.984999999999,-31073.85,-48171.825,-27253.754999999997,30671.19,185405.445
20495.204999999998,-13424.175,-10638.99,-31238.1,-48223.08,-27239.895,30600.629999999997,185552.82
20396.16,-13564.394999999999,-10715.67,-31088.52,-48235.814999999995,-27210.285,30540.239999999998,185697.585
20411.91,-13540.05,-10708.244999999999,-30951.18,-48209.265,-27233.325,30463.559999999998,185838.93
20437.829999999998,-13550.355,-10772.55,-30985.829999999998,-48327.615,-27025.965,30394.53,185976.585
20465.64,-13540.14,-10792.395,-31110.57,-48526.74,-27067.995,30304.754999999997,186106.68
20464.155,-13553.73,-10832.805,-31167.989999999998,-48409.604999999996,-27364.364999999998,30224.835,186234.79499999998
20463.84,-13550.85,-10797.93,-31075.335,-47996.82,-27223.2,30134.61,186380.865
20504.34,-13444.425,-10673.64,-31173.614999999998,-48257.369999999995,-27140.94,30061.17,186522.3
20552.895,-13376.519999999999,-10669.815,-31349.204999999998,-48677.759999999995,-27276.704999999998,29969.28,186658.965
20447.1,-13502.654999999999,-10677.69,-31171.004999999997,-48191.58,-27274.32,29870.82,186792.93
20416.32,-13519.619999999999,-10680.21,-31007.969999999998,-47692.17,-27283.995,29799.719999999998,186924.33
20477.835,-13439.519999999999,-10701.0,-31133.475,-48000.24,-26899.695,29724.12,187056.85499999998
20564.684999999998,-13389.66,-10693.395,-31237.649999999998,-48979.845,-26987.715,29655.27,187187.66999999998
20477.79,-13572.494999999999,-10798.74,-31119.03,-48753.045,-27243.27,29592.855,187320.82499999998
20447.505,-13519.215,-10660.095,-30917.385,-47957.445,-27404.055,29503.664999999997,187458.16499999998
20395.035,-13505.445,-10623.375,-30808.17,-47309.445,-27197.864999999998,29442.329999999998,187595.595
