ch_0,ch_1,ch_2,ch_3,ch_4,ch_5,ch_6,ch_7
6914.5199999999995,-29290.905,-14851.755,-9308.789999999999,-36495.045,-36823.814999999995,14624.73,-32817.375
6949.98,-29251.575,-14823.539999999999,-9276.48,-36468.9,-36830.88,14610.33,-32805.674999999996
6943.7699999999995,-29239.875,-14819.039999999999,-9267.119999999999,-36453.465,-36824.985,14620.769999999999,-32797.215
6891.929999999999,-29275.11,-14845.365,-9293.175,-36468.405,-36824.805,14625.585,-32814.315
6871.905,-29327.67,-14871.869999999999,-9308.925,-36466.47,-36788.04,14664.914999999999,-32785.244999999995
6821.55,-29420.19,-14957.64,-9385.065,-36517.59,-36789.75,14683.455,-32785.65
6763.275,-29494.035,-15030.045,-9451.08,-36564.84,-36809.729999999996,14679.494999999999,-32819.354999999996
6723.63,-29530.934999999998,-15061.814999999999,-9480.33,-36576.494999999995,-36805.229999999996,14683.725,-32844.015
6688.71,-29564.73,-15070.814999999999,-9482.039999999999,-36567.9,-36809.1,14665.32,-32887.034999999996
6728.8949999999995,-29563.245,-15040.349999999999,-9438.57,-36531.405,-36815.265,14643.045,-32877.135
6774.3,-29516.579999999998,-15007.41,-9413.19,-36516.78,-36834.03,14633.189999999999,-32841.854999999996
6785.955,-29457.45,-14973.974999999999,-9389.025,-36495.99,-36839.79,14623.965,-32835.465
6798.735,-29412.495,-14960.07,-9381.33,-36478.439999999995,-36832.365,14626.935,-32836.095
6819.705,-29371.23,-14933.07,-9358.289999999999,-36448.155,-36824.534999999996,14624.144999999999,-32836.725
6857.28,-29326.905,-14890.859999999999,-9333.404999999999,-36427.365,-36828.135,14626.17,-32822.685
6870.6449999999995,-29313.27,-14865.119999999999,-9328.635,-36424.53,-36835.47,14617.619999999999,-32809.77
6874.83,-29333.52,-14869.845,-9331.74,-36420.119999999995,-36812.79,14630.939999999999,-32789.79
6857.009999999999,-29361.105,-14889.644999999999,-9341.595,-36424.755,-36802.08,14645.07,-32786.595
6850.215,-29373.03,-14911.154999999999,-9349.065,-36434.655,-36810.18,14644.17,-32789.565
6874.695,-29355.614999999998,-14913.269999999999,-9344.699999999999,-36429.479999999996,-36818.82,14627.654999999999,-32801.49
6902.775,-29292.12,-14863.185,-9302.085,-36390.284999999996,-36821.744999999995,14614.109999999999,-32797.305
6930.09,-29236.364999999998,-14829.57,-9284.445,-36370.305,-36822.375,14619.24,-32775.39
6922.844999999999,-29248.11,-14843.97,-9326.654999999999,-36393.479999999996,-36822.869999999995,14631.525,-32765.805
6884.37,-29291.85,-14861.88,-9337.32,-36394.2,-36809.909999999996,14648.984999999999,-32754.195
6845.535,-29332.98,-14895.81,-9335.97,-36388.08,-36809.865,14658.345,-32756.625
6801.48,-29352.375,-14935.769999999999,-9357.255,-36401.895,-36835.244999999995,14648.445,-32787.0
6783.03,-29338.739999999998,-14920.154999999999,-9353.07,-36382.365,-36829.619999999995,14637.195,-32809.229999999996
6834.599999999999,-29270.07,-14857.289999999999,-9315.72,-36355.095,-36826.695,14620.769999999999,-32797.71
6895.3949999999995,-29194.649999999998,-14784.974999999999,-9261.63,-36330.03,-36838.755,14605.605,-32785.604999999996
6907.139999999999,-29196.045,-14778.494999999999,-9243.765,-36319.86,-36838.619999999995,14609.835,-32778.36
6891.884999999999,-29260.53,-14825.789999999999,-9288.9,-36338.67,-36829.845,14624.46,-32765.535
6865.965,-29286.0,-14848.154999999999,-9305.73,-36340.47,-36814.455,14638.769999999999,-32757.885
6828.57,-29326.995,-14899.5,-9319.365,-36340.965,-36810.765,14641.695,-32770.845
6810.255,-29342.655,-14924.789999999999,-9336.33,-36340.424999999996,-36807.119999999995,14645.205,-32776.92
6844.995,-29298.375,-14890.365,-9316.44,-36312.795,-36812.205,14634.0,-32773.905
6895.665,-29213.055,-14825.789999999999,-9288.0,-36296.415,-36831.465,14610.285,-32759.01
6900.705,-29167.695,-14782.994999999999,-9277.605,-36304.424999999996,-36847.08,14605.965,-32738.039999999997
6891.929999999999,-29142.719999999998,-14764.635,-9270.99,-36299.43,-36834.345,14618.654999999999,-32731.739999999998
6876.675,-29144.43,-14761.619999999999,-9264.15,-36293.04,-36819.09,14627.519999999999,-32733.27
6842.295,-29191.094999999998,-14798.16,-9291.105,-36308.52,-36812.025,14636.97,-32743.26
6839.28,-29199.96,-14793.615,-9294.705,-36307.799999999996,-36809.369999999995,14635.574999999999,-32750.01
6817.23,-29231.954999999998,-14795.414999999999,-9278.73,-36298.08,-36810.81,14636.564999999999,-32745.735
6775.245,-29285.504999999997,-14826.734999999999,-9281.025,-36299.295,-36808.74,14644.845,-32737.86
6759.63,-29308.86,-14862.375,-9311.22,-36317.159999999996,-36806.22,14644.529999999999,-32740.965
6763.995,-29305.44,-14872.68,-9329.22,-36318.555,-36792.45,14657.445,-32729.489999999998
6736.905,-29330.864999999998,-14893.74,-9367.83,-36341.145,-36802.845,14659.335,-32741.414999999997
6789.15,-29308.68,-14869.71,-9348.525,-36319.095,-36803.25,14653.529999999999,-32736.78
6837.929999999999,-29277.315,-14846.535,-9314.1,-36290.564999999995,-36817.56,14643.63,-32715.629999999997
6829.5599999999995,-29240.145,-14801.715,-9272.385,-36264.735,-36825.299999999996,14644.8,-32713.785
6810.165,-29234.879999999997,-14797.215,-9258.615,-36249.795,-36816.479999999996,14646.96,-32713.739999999998
6794.28,-29248.605,-14821.74,-9287.955,-36263.295,-36808.875,14654.519999999999,-32708.475
6790.41,-29248.11,-14833.305,-9316.08,-36274.59,-36785.43,14668.335,-32693.579999999998
6775.155,-29280.285,-14865.93,-9340.199999999999,-36290.97,-36783.945,14674.769999999999,-32686.515
6736.32,-29347.245,-14908.32,-9355.545,-36299.07,-36778.905,14695.154999999999,-32680.17
6672.6449999999995,-29404.934999999998,-14958.09,-9379.845,-36309.689999999995,-36779.805,14700.644999999999,-32698.44
6661.8,-29401.245,-14969.564999999999,-9376.695,-36301.814999999995,-36792.0,14686.154999999999,-32710.41
6700.679999999999,-29356.92,-14940.855,-9355.904999999999,-36286.56,-36811.665,14668.425,-32706.539999999997
6753.195,-29283.3,-14890.455,-9328.095,-36269.505,-36824.04,14646.285,-32712.12
6851.745,-29171.385,-14815.349999999999,-9274.14,-36229.77,-36816.075,14626.664999999999,-32681.61
6908.849999999999,-29111.085,-14756.76,-9219.69,-36191.744999999995,-36819.54,14622.66,-32634.495
6915.6449999999995,-29080.395,-14718.555,-9210.06,-36188.055,-36820.619999999995,14634.855,-32614.065
6836.355,-29104.739999999998,-14731.965,-9243.539999999999,-36207.63,-36816.525,14651.595,-32615.145
6760.485,-29138.129999999997,-14747.849999999999,-9261.63,-36212.13,-36801.945,14664.779999999999,-32621.985
6741.134999999999,-29142.855,-14747.355,-9242.91,-36186.39,-36782.1,14671.394999999999,-32616.945
6743.429999999999,-29135.114999999998,-14745.105,-9240.525,-36183.78,-36775.755,14685.66,-32612.175
6731.775,-29166.344999999998,-14773.095,-9272.43,-36206.189999999995,-36778.14,14688.855,-32618.07
6728.94,-29191.14,-14786.91,-9277.515,-36201.465,-36761.445,14692.904999999999,-32609.655
6734.295,-29192.85,-14789.115,-9267.93,-36185.58,-36748.305,14693.58,-32599.305
6727.365,-29181.69,-14788.619999999999,-9269.595,-36183.78,-36761.49,14681.654999999999,-32615.37
6765.705,-29127.059999999998,-14734.305,-9227.07,-36157.005,-36774.72,14662.08,-32613.3
6809.8949999999995,-29065.094999999998,-14685.255,-9194.984999999999,-36133.47,-36781.65,14656.635,-32592.6
6834.735,-29024.055,-14642.189999999999,-9170.505,-36115.65,-36775.35,14651.775,-32582.204999999998
6832.575,-29029.95,-14648.265,-9183.24,-36120.689999999995,-36769.68,14664.96,-32567.219999999998
6817.634999999999,-29055.735,-14677.74,-9205.02,-36127.215,-36760.32,14675.31,-32565.059999999998
6793.0199999999995,-29116.44,-14709.644999999999,-9216.27,-36125.055,-36742.86,14697.404999999999,-32559.614999999998
6752.429999999999,-29192.265,-14748.93,-9239.13,-36143.28,-36745.424999999996,14704.425,-32570.414999999997
6743.34,-29203.695,-14768.144999999999,-9253.215,-36154.395,-36754.38,14694.885,-32575.41
6730.245,-29211.93,-14781.42,-9260.369999999999,-36150.255,-36740.564999999995,14695.38,-32578.515
6705.36,-29214.765,-14788.439999999999,-9262.529999999999,-36144.18,-36734.895,14701.275,-32590.305
6698.79,-29178.315,-14777.01,-9273.914999999999,-36149.49,-36757.979999999996,14680.935,-32607.405
6747.389999999999,-29115.945,-14712.164999999999,-9234.045,-36133.29,-36778.229999999996,14664.779999999999,-32594.219999999998
6782.085,-29108.34,-14712.48,-9233.46,-36132.479999999996,-36778.905,14674.994999999999,-32571.585
6792.795,-29111.399999999998,-14726.564999999999,-9248.22,-36129.104999999996,-36763.65,14695.56,-32560.289999999997
6791.8949999999995,-29127.015,-14744.295,-9262.71,-36133.875,-36772.38,14696.234999999999,-32556.914999999997
6806.474999999999,-29121.524999999998,-14754.15,-9258.57,-36134.369999999995,-36783.09,14700.51,-32534.64
6787.125,-29129.805,-14773.005,-9280.08,-36151.515,-36793.89,14700.734999999999,-32520.87
6767.28,-29152.98,-14781.465,-9297.855,-36158.534999999996,-36784.89,14716.574999999999,-32514.3
6747.66,-29171.969999999998,-14781.06,-9304.875,-36150.345,-36778.229999999996,14712.84,-32526.495
6750.855,-29187.405,-14791.32,-9314.595,-36139.994999999995,-36776.61,14709.06,-32534.774999999998
6772.455,-29160.27,-14770.305,-9319.185,-36147.42,-36787.005,14694.255,-32532.795
6781.05,-29125.395,-14737.949999999999,-9295.154999999999,-36142.335,-36796.32,14687.685,-32534.28
6775.425,-29131.11,-14741.865,-9290.699999999999,-36135.674999999996,-36787.994999999995,14696.055,-32531.445
6802.245,-29121.795,-14737.23,-9286.244999999999,-36117.854999999996,-36773.505,14700.42,-32510.16
6852.195,-29078.82,-14723.189999999999,-9277.965,-36110.655,-36794.205,14687.73,-32484.329999999998
6882.929999999999,-29047.59,-14704.38,-9272.925,-36111.6,-36801.18,14693.805,-32474.475
6881.535,-29056.59,-14710.455,-9287.279999999999,-36127.485,-36804.689999999995,14693.715,-32478.254999999997
6850.844999999999,-29099.34,-14727.24,-9302.58,-36140.985,-36802.979999999996,14692.185,-32484.465
6803.325,-29149.965,-14756.715,-9329.85,-36148.095,-36786.06,14702.265,-32490.045
6756.884999999999,-29202.03,-14792.445,-9348.84,-36150.57,-36780.57,14711.535,-32503.454999999998
6749.37,-29199.96,-14790.465,-9340.065,-36145.665,-36799.92,14696.324999999999,-32516.414999999997
6823.53,-29128.14,-14732.865,-9292.365,-36116.055,-36813.78,14673.285,-32504.039999999997
6873.12,-29086.785,-14701.5,-9267.93,-36098.64,-36809.595,14678.1,-32480.82
6894.675,-29057.265,-14693.49,-9276.48,-36100.395,-36799.83,14694.39,-32465.61
6890.8949999999995,-29041.02,-14671.98,-9259.92,-36086.895,-36794.61,14697.855,-32470.065
6926.804999999999,-29016.855,-14654.34,-9253.755,-36077.67,-36792.09,14691.06,-32459.67
6962.445,-29000.789999999997,-14655.465,-9252.135,-36072.0,-36796.409999999996,14682.015,-32432.67
6940.844999999999,-29016.27,-14659.74,-9252.765,-36077.534999999996,-36794.564999999995,14699.16,-32417.864999999998
6886.259999999999,-29066.399999999998,-14696.324999999999,-9288.494999999999,-36101.88,-36788.939999999995,14710.859999999999,-32431.995
6837.66,-29121.344999999998,-14751.224999999999,-9338.535,-36132.885,-36790.11,14712.93,-32452.065
6814.17,-29147.805,-14768.144999999999,-9356.4,-36139.994999999995,-36787.59,14708.609999999999,-32467.454999999998
6826.23,-29156.579999999998,-14761.755,-9345.06,-36127.395,-36781.784999999996,14703.119999999999,-32469.704999999998
6873.705,-29134.35,-14747.535,-9329.715,-36113.13,-36788.085,14696.234999999999,-32450.67
6878.565,-29136.239999999998,-14750.414999999999,-9338.039999999999,-36117.72,-36789.39,14705.324999999999,-32438.52
6856.38,-29153.7,-14755.455,-9335.43,-36114.119999999995,-36770.985,14720.535,-32433.03
6860.474999999999,-29144.745,-14765.49,-9334.845,-36117.09,-36769.455,14720.76,-32426.37
6832.62,-29157.795,-14785.785,-9346.005,-36121.814999999995,-36776.79,14722.154999999999,-32436.449999999997
6813.719999999999,-29138.67,-14770.394999999999,-9341.64,-36107.28,-36781.875,14713.47,-32454.719999999998
6869.745,-29043.809999999998,-14682.285,-9292.005,-36089.955,-36818.729999999996,14685.39,-32454.09
6922.3949999999995,-28989.0,-14655.285,-9294.705,-36090.72,-36823.005,14688.0,-32438.565
6935.94,-28980.315,-14657.49,-9321.885,-36102.284999999996,-36804.6,14697.81,-32431.59
6860.115,-29058.39,-14699.43,-9344.115,-36111.869999999995,-36786.689999999995,14713.109999999999,-32442.48
6809.67,-29117.745,-14726.16,-9356.805,-36111.104999999996,-36778.635,14726.654999999999,-32446.485
6748.605,-29170.664999999997,-14755.41,-9362.654999999999,-36105.255,-36783.854999999996,14730.795,-32455.574999999997
6740.6849999999995,-29190.96,-14774.13,-9375.57,-36117.854999999996,-36800.865,14721.795,-32465.879999999997
6793.965,-29164.32,-14755.23,-9353.97,-36098.64,-36799.064999999995,14719.41,-32452.469999999998
6811.92,-29136.735,-14736.42,-9342.449999999999,-36095.13,-36813.375,14706.0,-32450.489999999998
6946.695,-29031.164999999997,-14679.135,-9305.19,-36077.13,-36828.36,14676.345,-32421.329999999998
7004.88,-28978.649999999998,-14646.914999999999,-9281.25,-36068.04,-36833.895,14674.769999999999,-32390.774999999998
7010.505,-28978.92,-14654.519999999999,-9291.06,-36067.86,-36823.77,14680.755,-32388.795
6985.215,-29003.085,-14669.955,-9321.57,-36088.424999999996,-36818.775,14684.805,-32385.555
6928.335,-29046.51,-14683.32,-9333.045,-36100.305,-36812.25,14693.22,-32398.289999999997
6901.695,-29053.575,-14670.269999999999,-9323.955,-36093.869999999995,-36814.185,14692.455,-32408.235
6926.849999999999,-29021.489999999998,-14634.855,-9309.06,-36090.81,-36829.034999999996,14687.73,-32396.579999999998
6961.995,-29007.765,-14638.545,-9308.43,-36079.064999999995,-36832.005,14680.529999999999,-32380.695
6968.655,-29033.414999999997,-14685.435,-9325.17,-36076.905,-36817.74,14694.975,-32366.385
6919.11,-29106.629999999997,-14788.394999999999,-9387.9,-36111.6,-36816.255,14705.685,-32378.625
6867.134999999999,-29156.039999999997,-14830.064999999999,-9404.73,-36122.985,-36806.715,14713.335,-32392.079999999998
6851.565,-29180.114999999998,-14851.215,-9416.654999999999,-36129.915,-36807.75,14708.475,-32395.86
6867.36,-29161.89,-14815.574999999999,-9422.279999999999,-36132.93,-36816.615,14705.1,-32392.98
6883.38,-29120.445,-14757.615,-9405.539999999999,-36119.79,-36827.64,14688.045,-32392.754999999997
6869.07,-29120.76,-14745.824999999999,-9401.984999999999,-36111.78,-36819.09,14680.529999999999,-32388.48
6761.61,-29200.454999999998,-14767.289999999999,-9431.955,-36132.345,-36808.064999999995,14696.46,-32407.695
6728.535,-29233.395,-14789.07,-9445.005,-36141.345,-36803.295,14711.31,-32412.87
6743.07,-29193.48,-14768.369999999999,-9425.16,-36135.494999999995,-36844.875,14688.99,-32425.155
6863.985,-29070.45,-14692.32,-9378.315,-36112.814999999995,-36882.945,14658.39,-32408.864999999998
7002.134999999999,-28941.975,-14613.57,-9331.38,-36097.65,-36904.32,14628.644999999999,-32374.17
7053.12,-28919.61,-14605.785,-9302.22,-36070.875,-36873.494999999995,14641.83,-32347.215
7020.36,-28969.425,-14618.609999999999,-9296.19,-36054.765,-36840.24,14664.734999999999,-32346.045
6982.335,-29012.085,-14647.185,-9315.99,-36070.2,-36849.375,14665.095,-32355.27
6965.054999999999,-29014.739999999998,-14671.394999999999,-9340.92,-36089.145,-36849.195,14663.519999999999,-32360.67
