ch_0,ch_1,ch_2,ch_3,ch_4,ch_5,ch_6,ch_7
-4959.2699999999995,-24505.11,17092.079999999998,832.005,9021.779999999999,-22596.39,-5316.03,14774.894999999999
-4965.165,-24476.895,17106.075,823.905,9012.195,-22607.28,-5324.264999999999,14766.705
-4974.929999999999,-24502.14,17077.14,826.02,9011.565,-22606.245,-5327.19,14760.18
-4977.63,-24563.07,17065.395,838.395,9018.0,-22596.57,-5331.465,14757.074999999999
-4981.7699999999995,-24594.975,17100.45,846.0899999999999,9012.96,-22600.53,-5315.264999999999,14764.859999999999
-4974.389999999999,-24548.579999999998,17122.32,841.3199999999999,9002.88,-22608.585,-5313.915,14765.939999999999
-4960.665,-24503.67,17110.305,827.55,8993.16,-22613.76,-5320.665,14765.805
-4961.745,-24505.605,17110.89,829.5749999999999,8997.705,-22610.565,-5320.08,14764.365
-4959.63,-24498.135,17124.03,840.645,9009.225,-22603.364999999998,-5317.695,14764.455
-4967.099999999999,-24503.265,17123.445,842.4449999999999,9009.945,-22605.704999999998,-5323.59,14757.93
-4971.96,-24510.915,17119.395,844.8299999999999,9013.725,-22600.395,-5320.575,14755.635
-4975.2,-24506.235,17127.36,853.155,9021.51,-22589.415,-5315.849999999999,14753.025
-4972.995,-24496.739999999998,17135.91,859.86,9025.74,-22584.87,-5316.389999999999,14751.72
-4977.36,-24512.94,17127.855,852.12,9016.065,-22589.19,-5318.775,14747.67
-4978.349999999999,-24530.579999999998,17117.954999999998,849.555,9014.625,-22586.129999999997,-5317.695,14747.894999999999
-4980.825,-24531.03,17113.41,849.6899999999999,9014.805,-22582.665,-5317.605,14744.744999999999
-4979.565,-24516.855,17105.04,837.36,9004.455,-22590.045,-5318.054999999999,14742.63
-4969.215,-24499.44,17117.595,844.74,9009.81,-22585.59,-5315.804999999999,14746.545
-4964.67,-24498.45,17120.52,851.76,9015.66,-22578.39,-5311.26,14748.255
-4981.905,-24522.57,17096.489999999998,831.375,8994.96,-22593.465,-5315.985,14734.574999999999
-4988.79,-24514.965,17101.079999999998,830.16,8989.335,-22599.629999999997,-5322.465,14725.619999999999
-5000.445,-24492.239999999998,17125.785,835.605,8992.395,-22595.85,-5328.405,14715.72
-5005.889999999999,-24509.204999999998,17107.47,834.795,8992.619999999999,-22588.335,-5319.179999999999,14717.835
-5013.63,-24576.344999999998,17053.47,831.9599999999999,8987.85,-22587.344999999998,-5315.8949999999995,14717.16
-5010.705,-24633.09,17056.8,829.35,8982.945,-22592.204999999998,-5318.01,14717.295
-4991.49,-24579.719999999998,17102.97,827.1899999999999,8974.35,-22602.375,-5320.98,14720.535
-4981.23,-24518.295,17090.325,808.6949999999999,8958.734999999999,-22619.34,-5327.19,14717.519999999999
-4986.945,-24545.25,17090.774999999998,825.7049999999999,8977.77,-22600.125,-5319.495,14715.855
-4982.67,-24531.165,17118.72,846.0,8996.355,-22584.555,-5320.44,14716.08
-4982.264999999999,-24517.215,17116.92,835.74,8986.095,-22594.454999999998,-5330.07,14708.699999999999
-4986.54,-24527.25,17109.405,838.7099999999999,8986.545,-22598.325,-5329.62,14707.98
-4990.05,-24544.079999999998,17094.555,839.385,8987.31,-22600.98,-5329.8,14706.675
-4980.78,-24528.87,17117.415,866.3399999999999,9012.734999999999,-22572.989999999998,-5319.675,14712.435
-4972.995,-24513.12,17119.845,871.38,9014.31,-22569.39,-5315.58,14716.71
-4974.21,-24518.79,17097.434999999998,862.02,9001.035,-22582.665,-5317.47,14716.08
-4974.48,-24521.579999999998,17093.07,855.135,8991.855,-22590.36,-5319.63,14714.144999999999
-4986.405,-24537.96,17105.445,851.67,8986.14,-22593.825,-5321.34,14708.25
-4991.264999999999,-24540.3,17105.67,851.175,8987.67,-22589.415,-5317.245,14707.17
-4981.724999999999,-24520.59,17113.995,861.615,8998.02,-22581.225,-5309.82,14714.865
-4979.88,-24523.829999999998,17108.235,856.5749999999999,8991.494999999999,-22589.235,-5307.885,14717.519999999999
-4991.535,-24550.11,17100.495,856.0799999999999,8992.574999999999,-22587.84,-5308.83,14711.355
-4992.03,-24549.795,17103.239999999998,860.625,8996.22,-22581.629999999997,-5303.88,14711.445
-4986.2699999999995,-24520.905,17109.495,863.505,8996.445,-22580.864999999998,-5304.915,14710.545
-4986.54,-24518.25,17099.684999999998,853.02,8988.84,-22586.219999999998,-5305.995,14710.275
-4995.495,-24535.395,17087.309999999998,844.155,8979.074999999999,-22593.195,-5311.349999999999,14704.785
-5003.955,-24543.54,17086.32,837.99,8970.705,-22600.62,-5315.67,14698.845
-5007.195,-24536.925,17098.965,838.485,8967.645,-22601.204999999998,-5314.139999999999,14697.855
-5005.98,-24539.805,17108.28,858.735,8984.16,-22582.89,-5310.36,14699.205
-4998.87,-24564.105,17101.079999999998,859.8149999999999,8983.035,-22582.844999999998,-5312.115,14702.22
-4997.205,-24564.915,17100.765,848.0699999999999,8970.75,-22592.024999999998,-5321.429999999999,14698.484999999999
-4986.315,-24504.795,17106.57,838.8449999999999,8970.885,-22589.19,-5318.054999999999,14703.48
-4993.245,-24508.17,17075.385,815.7149999999999,8960.535,-22595.355,-5313.825,14697.855
-5005.9349999999995,-24559.515,17064.315,830.61,8974.755,-22576.5,-5306.264999999999,14691.06
-5008.32,-24573.51,17077.725,846.0,8971.425,-22583.114999999998,-5309.505,14688.045
-4998.105,-24545.565,17095.5,849.78,8972.595,-22580.594999999998,-5303.565,14696.414999999999
-4995.945,-24527.295,17100.72,832.41,8957.25,-22588.335,-5306.264999999999,14694.255
-5000.22,-24534.0,17100.72,834.8399999999999,8954.234999999999,-22588.155,-5312.385,14688.135
-5000.4,-24532.245,17114.355,841.905,8953.83,-22586.94,-5314.724999999999,14685.93
-4993.38,-24521.355,17142.885,853.56,8958.6,-22585.905,-5312.205,14688.359999999999
-4997.745,-24540.344999999998,17121.915,848.0699999999999,8959.725,-22585.23,-5317.29,14679.494999999999
-5005.889999999999,-24558.344999999998,17109.27,854.37,8972.865,-22572.809999999998,-5320.304999999999,14672.835
-5005.755,-24555.825,17102.835,853.9649999999999,8969.715,-22576.545,-5300.595,14683.05
-4999.23,-24547.68,17097.524999999998,852.75,8966.43,-22575.6,-5300.235,14681.744999999999
-4997.295,-24546.6,17111.43,857.61,8962.47,-22576.23,-5303.385,14676.84
-5000.13,-24559.649999999998,17120.88,854.73,8949.96,-22585.905,-5308.155,14672.205
-4999.59,-24561.09,17111.52,846.765,8942.805,-22591.754999999997,-5309.01,14671.26
-5006.655,-24563.565,17110.125,847.4399999999999,8944.515,-22592.25,-5313.24,14663.835
-4997.07,-24564.329999999998,17109.585,857.52,8955.855,-22584.329999999998,-5304.105,14672.115
-4981.275,-24538.68,17119.755,872.4599999999999,8971.109999999999,-22576.094999999998,-5302.17,14677.785
-4983.615,-24557.579999999998,17112.059999999998,858.1949999999999,8966.835,-22579.2,-5305.365,14673.914999999999
-4988.655,-24569.954999999998,17085.195,853.3349999999999,8962.515,-22582.89,-5307.255,14669.505
-4990.32,-24553.71,17061.75,860.76,8968.455,-22577.715,-5308.065,14666.13
-4990.365,-24537.329999999998,17114.805,865.125,8967.69,-22576.86,-5305.7699999999995,14665.68
-4985.19,-24521.309999999998,17166.555,870.165,8966.744999999999,-22578.75,-5303.385,14668.38
-4988.655,-24515.684999999998,17152.785,866.43,8960.76,-22586.805,-5303.97,14664.914999999999
-5006.7,-24522.3,17160.12,864.81,8952.57,-22595.129999999997,-5310.585,14653.17
-5019.885,-24563.565,17164.485,866.295,8946.81,-22598.415,-5317.38,14643.72
-5014.53,-24627.96,17144.505,867.735,8950.455,-22592.61,-5310.764999999999,14650.019999999999
-5011.38,-24651.54,17111.295,857.745,8947.935,-22593.87,-5306.3099999999995,14653.305
-5004.045,-24570.765,17096.85,837.81,8930.654999999999,-22612.59,-5316.389999999999,14648.4
-5000.4,-24538.004999999997,17093.565,826.92,8928.81,-22614.84,-5318.37,14645.744999999999
-5007.554999999999,-24587.64,17118.405,854.91,8953.92,-22595.895,-5316.48,14643.585
-5008.59,-24597.765,17118.945,865.35,8957.744999999999,-22593.555,-5315.8949999999995,14642.01
-4999.815,-24543.989999999998,17130.735,862.92,8945.46,-22605.3,-5317.47,14642.01
-4994.235,-24532.965,17145.225,864.5849999999999,8945.505,-22603.274999999998,-5312.835,14643.9
-5005.304999999999,-24566.355,17148.69,871.38,8955.359999999999,-22591.485,-5306.849999999999,14639.535
-5009.04,-24565.995,17149.14,864.81,8946.27,-22599.54,-5308.605,14636.564999999999
-5004.495,-24549.66,17146.305,859.635,8943.93,-22601.745,-5310.224999999999,14637.195
-5003.505,-24557.489999999998,17153.595,870.03,8958.914999999999,-22586.94,-5303.79,14641.56
-5018.3099999999995,-24568.739999999998,17150.67,866.0699999999999,8952.615,-22595.399999999998,-5310.045,14633.865
-5036.625,-24558.93,17137.98,865.305,8950.68,-22598.864999999998,-5307.389999999999,14637.644999999999
-5075.955,-24535.665,17145.45,859.005,8941.23,-22607.954999999998,-5310.945,14638.545
-5095.665,-24556.004999999997,17172.045,866.2049999999999,8940.779999999999,-22608.315,-5310.764999999999,14637.285
-5104.08,-24578.684999999998,17184.285,872.4599999999999,8942.31,-22605.795,-5308.92,14634.135
-5099.04,-24569.864999999998,17164.035,864.81,8936.685,-22609.754999999997,-5311.62,14631.795
-5086.98,-24557.445,17140.05,856.0799999999999,8937.945,-22604.76,-5310.945,14633.369999999999
-5088.6449999999995,-24569.594999999998,17147.16,859.77,8939.205,-22603.815,-5312.34,14628.15
-5089.545,-24584.309999999998,17173.665,873.63,8946.09,-22597.2,-5310.315,14623.109999999999
-5081.04,-24582.105,17167.725,864.36,8939.88,-22604.265,-5311.125,14622.21
-5081.175,-24582.105,17145.36,848.385,8927.865,-22615.965,-5312.88,14617.845
-5076.764999999999,-24588.675,17150.535,845.685,8923.5,-22619.969999999998,-5309.325,14617.26
-5071.139999999999,-24615.989999999998,17158.905,861.03,8932.275,-22613.67,-5306.804999999999,14616.945
-5054.625,-24614.1,17130.105,862.4699999999999,8937.539999999999,-22607.415,-5299.965,14624.685
-5047.605,-24600.465,17092.26,842.2199999999999,8929.484999999999,-22612.364999999998,-5302.53,14620.41
-5040.36,-24576.885,17106.48,827.91,8918.46,-22621.05,-5301.54,14616.63
-5038.065,-24577.379999999997,17152.245,848.61,8931.555,-22609.98,-5313.285,14613.029999999999
-5027.535,-24575.715,17174.88,866.79,8942.31,-22602.195,-5314.905,14617.529999999999
-5024.115,-24568.739999999998,17188.155,869.76,8936.505,-22610.475,-5308.0199999999995,14616.585
-5030.73,-24583.995,17178.66,862.245,8928.045,-22619.295,-5309.28,14609.789999999999
-5033.16,-24580.934999999998,17191.26,869.2199999999999,8929.305,-22619.475,-5315.49,14600.34
-5017.41,-24563.969999999998,17206.695,880.3349999999999,8937.765,-22613.94,-5320.889999999999,14599.26
-5016.554999999999,-24568.335,17199.63,873.0,8931.645,-22620.149999999998,-5310.495,14607.269999999999
-5019.345,-24576.165,17188.829999999998,862.425,8922.869999999999,-22626.765,-5300.639999999999,14609.519999999999
-5020.92,-24577.515,17197.02,867.6,8926.154999999999,-22623.795,-5309.505,14600.07
-5023.889999999999,-24581.879999999997,17202.285,871.245,8926.74,-22621.5,-5308.2,14596.244999999999
-5026.815,-24585.795,17204.85,871.245,8924.58,-22622.085,-5308.0199999999995,14591.295
-5027.76,-24580.754999999997,17209.575,870.525,8920.35,-22626.765,-5309.01,14586.84
-5029.65,-24578.46,17218.215,876.105,8920.215,-22628.475,-5308.92,14583.105
-5023.845,-24580.575,17223.255,883.35,8924.039999999999,-22629.285,-5305.1849999999995,14587.244999999999
-5018.04,-24588.27,17210.25,874.53,8918.505,-22631.715,-5305.41,14586.705
-5006.88,-24600.285,17197.245,859.41,8905.949999999999,-22639.77,-5303.97,14588.82
-5005.17,-24622.245,17154.585,835.6949999999999,8898.255,-22646.34,-5304.24,14588.82
-5006.61,-24625.754999999997,17116.245,832.41,8902.125,-22640.715,-5305.41,14585.805
-5009.04,-24619.184999999998,17119.8,836.505,8904.645,-22638.87,-5313.78,14578.154999999999
-5003.865,-24595.11,17178.614999999998,852.03,8913.914999999999,-22635.315,-5322.96,14574.105
-4989.42,-24563.655,17199.36,863.145,8916.57,-22637.43,-5318.73,14578.109999999999
-4999.679999999999,-24585.434999999998,17182.035,859.23,8908.109999999999,-22644.765,-5311.755,14570.73
-5014.304999999999,-24598.575,17206.785,868.77,8913.06,-22635.0,-5310.2699999999995,14560.92
-4996.3949999999995,-24577.695,17233.245,881.235,8920.98,-22626.0,-5307.3,14569.47
-4985.73,-24580.395,17236.62,883.53,8921.16,-22625.954999999998,-5306.67,14573.205
-4986.855,-24592.32,17234.46,886.86,8925.39,-22621.094999999998,-5302.665,14571.855
-4985.37,-24590.925,17221.68,881.8199999999999,8924.175,-22622.805,-5302.98,14569.74
-4976.37,-24586.605,17198.325,864.405,8911.8,-22633.515,-5303.61,14571.81
-4976.775,-24593.399999999998,17199.18,860.535,8907.255,-22639.32,-5304.78,14569.785
-4980.014999999999,-24582.149999999998,17225.55,875.2049999999999,8917.92,-22631.535,-5305.545,14563.89
-4989.014999999999,-24589.71,17221.14,867.015,8908.605,-22639.545,-5310.09,14553.585
-4987.755,-24598.485,17222.76,867.285,8906.22,-22643.684999999998,-5313.599999999999,14552.01
-4993.155,-24622.155,17217.63,867.06,8908.56,-22639.815,-5315.4,14545.845
-4990.455,-24620.445,17219.43,872.505,8916.93,-22630.86,-5309.415,14546.789999999999
-4988.745,-24597.989999999998,17213.985,863.73,8909.055,-22639.184999999998,-5314.41,14541.615
-4981.095,-24585.704999999998,17220.96,864.0,8911.664999999999,-22638.825,-5309.1449999999995,14546.654999999999
-4979.205,-24595.92,17230.77,873.7199999999999,8919.135,-22634.235,-5306.085,14545.8
-4974.885,-24595.155,17243.37,881.865,8923.23,-22632.434999999998,-5303.115,14545.574999999999
-4977.855,-24599.745,17235.72,868.05,8908.154999999999,-22647.87,-5302.62,14542.65
-4977.2699999999995,-24576.165,17232.12,865.26,8911.125,-22645.079999999998,-5304.51,14539.455
-4972.139999999999,-24542.864999999998,17227.98,867.3299999999999,8914.994999999999,-22637.655,-5299.605,14542.785
-4985.099999999999,-24583.004999999997,17218.62,859.3199999999999,8904.33,-22644.989999999998,-5304.915,14533.425
-4983.345,-24652.079999999998,17220.645,860.5799999999999,8903.654999999999,-22647.285,-5306.4,14533.199999999999
-4979.97,-24674.715,17195.579999999998,860.265,8909.595,-22639.32,-5300.91,14535.63
-4967.955,-24590.204999999998,17189.415,858.42,8906.535,-22642.425,-5307.795,14531.085
