ch_0,ch_1,ch_2,ch_3,ch_4,ch_5,ch_6,ch_7
-10694.205,-31800.735,-20825.37,-43541.595,-60697.439999999995,-61317.225,-8777.88,-3295.5299999999997
-10694.16,-31788.945,-20798.91,-43507.89,-60646.14,-61194.195,-8780.895,-3306.5099999999998
-10678.77,-31766.76,-20781.09,-43497.18,-60647.22,-61211.295,-8787.375,-3306.375
-10671.48,-31761.629999999997,-20782.62,-43505.055,-60664.365,-61233.21,-8791.065,-3311.5499999999997
-10662.48,-31751.414999999997,-20774.114999999998,-43502.49,-60666.479999999996,-61230.869999999995,-8795.835,-3317.04
-10654.515,-31749.12,-20773.575,-43499.924999999996,-60662.7,-61213.725,-8794.529999999999,-3317.265
-10660.365,-31768.065,-20790.855,-43508.07,-60664.994999999995,-61195.32,-8790.119999999999,-3318.12
-10663.83,-31769.954999999998,-20786.355,-43508.115,-60669.0,-61185.06,-8791.695,-3322.935
-10651.77,-31753.035,-20774.16,-43500.689999999995,-60661.53,-61167.555,-8797.14,-3326.895
-10642.185,-31746.465,-20776.815,-43507.395,-60674.354999999996,-61170.345,-8801.64,-3329.64
-10632.914999999999,-31747.77,-20778.39,-43506.81,-60678.945,-61171.92,-8793.945,-3326.22
-10638.18,-31757.265,-20785.005,-43505.64,-60670.079999999994,-61164.45,-8800.965,-3334.68
-10645.154999999999,-31772.34,-20799.45,-43512.165,-60669.045,-61157.34,-8802.765,-3341.745
-10638.63,-31759.695,-20777.219999999998,-43497.45,-60663.195,-61148.7,-8791.83,-3341.0699999999997
-10628.865,-31731.254999999997,-20746.89,-43481.475,-60660.405,-61143.884999999995,-8792.55,-3343.41
-10632.24,-31733.82,-20755.98,-43488.99,-60665.445,-61128.63,-8797.994999999999,-3352.275
-10644.3,-31754.385,-20775.329999999998,-43509.33,-60693.119999999995,-61142.939999999995,-8781.345,-3356.0099999999998
-10643.22,-31759.515,-20781.989999999998,-43515.09,-60698.25,-61134.84,-8774.595,-3362.22
-10638.09,-31758.074999999997,-20775.015,-43498.619999999995,-60670.305,-61093.034999999996,-8793.63,-3374.775
-10629.585,-31748.355,-20770.559999999998,-43496.865,-60664.634999999995,-61070.265,-8802.855,-3382.875
-10622.205,-31748.489999999998,-20775.239999999998,-43498.395,-60662.564999999995,-61055.325,-8801.955,-3388.3199999999997
-10628.46,-31761.765,-20783.475,-43500.015,-60658.74,-61064.325,-8791.83,-3393.315
-10613.654999999999,-31737.42,-20762.73,-43491.689999999995,-60659.505,-61070.265,-8788.365,-3390.39
-10601.865,-31718.34,-20745.405,-43485.884999999995,-60669.765,-61083.54,-8799.164999999999,-3385.08
-10605.195,-31738.41,-20767.68,-43500.33,-60681.735,-61093.125,-8817.66,-3382.605
-10627.515,-31773.105,-20788.605,-43518.869999999995,-60705.945,-61106.354999999996,-8790.21,-3392.415
-10624.365,-31755.375,-20763.675,-43496.145,-60687.945,-61087.5,-8783.73,-3401.73
-10608.84,-31742.28,-20758.815,-43493.445,-60683.759999999995,-61065.045,-8796.645,-3396.5099999999998
-10590.885,-31733.864999999998,-20762.864999999998,-43499.07,-60680.564999999995,-61036.244999999995,-8803.44,-3390.5699999999997
-10589.715,-31737.42,-20766.015,-43497.585,-60665.399999999994,-60992.909999999996,-8805.69,-3387.24
-10604.25,-31751.19,-20762.864999999998,-43488.0,-60661.485,-60990.345,-8797.904999999999,-3385.845
-10608.119999999999,-31755.69,-20752.02,-43472.88,-60654.42,-60992.954999999994,-8799.164999999999,-3383.2799999999997
-10600.785,-31770.18,-20788.785,-43511.49,-60686.055,-61016.85,-8810.055,-3378.7349999999997
-10576.395,-31766.219999999998,-20789.684999999998,-43507.799999999996,-60680.159999999996,-61010.505,-8797.815,-3357.765
-10570.77,-31755.195,-20768.13,-43497.314999999995,-60686.009999999995,-61022.97,-8796.555,-3351.69
-10560.285,-31723.965,-20734.739999999998,-43474.14,-60669.045,-61009.155,-8775.945,-3344.805
-10566.18,-31747.23,-20763.135,-43495.02,-60686.865,-61034.354999999996,-8778.06,-3341.43
-10561.545,-31755.105,-20765.655,-43494.345,-60692.67,-61054.424999999996,-8785.215,-3334.3199999999997
-10542.555,-31731.12,-20743.2,-43475.805,-60671.43,-60993.81,-8785.215,-3323.745
-10540.395,-31732.02,-20743.065,-43470.494999999995,-60647.895,-60908.49,-8783.19,-3318.795
-10551.195,-31752.225,-20764.98,-43488.99,-60660.854999999996,-60907.095,-8790.074999999999,-3320.955
-10542.779999999999,-31750.289999999997,-20761.785,-43485.255,-60658.56,-60917.759999999995,-8785.755,-3312.9449999999997
-10539.359999999999,-31754.699999999997,-20769.21,-43492.185,-60666.884999999995,-60930.54,-8786.97,-3307.5899999999997
-10529.955,-31745.655,-20762.28,-43485.075,-60659.325,-60928.064999999995,-8791.92,-3302.37
-10518.885,-31727.565,-20744.19,-43470.314999999995,-60647.22,-60918.479999999996,-8802.945,-3296.8799999999997
-10517.13,-31730.76,-20751.57,-43477.74,-60652.079999999994,-60914.88,-8806.275,-3293.1
-10512.18,-31746.329999999998,-20770.829999999998,-43495.92,-60673.32,-60922.439999999995,-8783.955,-3277.845
-10510.74,-31748.219999999998,-20760.975,-43486.83,-60672.015,-60912.99,-8770.365,-3268.035
-10516.545,-31743.449999999997,-20747.79,-43476.03,-60663.149999999994,-60907.229999999996,-8779.455,-3273.075
-10508.355,-31733.504999999997,-20748.51,-43482.375,-60675.57,-60928.244999999995,-8788.5,-3273.2549999999997
-10491.3,-31715.414999999997,-20740.454999999998,-43480.034999999996,-60679.215,-60938.954999999994,-8797.5,-3266.1
-10480.23,-31704.93,-20730.87,-43464.645,-60649.695,-60893.009999999995,-8808.93,-3260.9249999999997
-10477.664999999999,-31709.25,-20736.18,-43468.604999999996,-60642.72,-60874.38,-8798.58,-3250.845
-10472.58,-31720.094999999998,-20738.475,-43465.14,-60643.575,-60887.07,-8765.505,-3238.02
-10498.095,-31747.184999999998,-20754.54,-43479.63,-60662.924999999996,-60899.399999999994,-8764.92,-3251.79
-10515.195,-31767.885,-20777.265,-43509.96,-60701.939999999995,-60935.265,-8777.789999999999,-3260.115
-10507.455,-31751.864999999998,-20762.325,-43490.88,-60672.96,-60904.89,-8781.435,-3258.4049999999997
-10498.68,-31731.39,-20739.195,-43465.59,-60639.255,-60846.479999999996,-8786.43,-3259.35
-10490.895,-31722.254999999997,-20731.14,-43458.93,-60635.835,-60832.89,-8782.56,-3252.1949999999997
-10489.275,-31715.594999999998,-20730.239999999998,-43461.674999999996,-60641.595,-60823.619999999995,-8792.414999999999,-3255.93
-10485.359999999999,-31709.879999999997,-20729.34,-43467.75,-60654.42,-60837.659999999996,-8796.375,-3256.92
-10472.715,-31706.864999999998,-20727.405,-43470.09,-60661.215,-60882.345,-8782.47,-3246.975
-10472.67,-31722.3,-20744.235,-43482.015,-60665.67,-60892.02,-8783.595,-3252.1949999999997
-10481.58,-31741.875,-20763.945,-43491.465,-60659.1,-60867.63,-8791.065,-3264.39
-10491.119999999999,-31754.879999999997,-20763.765,-43484.805,-60655.454999999994,-60852.78,-8780.895,-3262.77
-10492.289999999999,-31729.094999999998,-20725.875,-43457.895,-60643.755,-60838.064999999995,-8772.795,-3260.745
-10483.02,-31705.829999999998,-20714.13,-43450.965,-60632.865,-60816.869999999995,-8781.164999999999,-3260.97
-10473.75,-31703.895,-20722.05,-43458.345,-60633.045,-60809.759999999995,-8788.365,-3258.3599999999997
-10469.699999999999,-31700.114999999998,-20719.44,-43457.805,-60631.649999999994,-60799.454999999994,-8780.85,-3256.245
-10481.445,-31717.485,-20735.46,-43468.244999999995,-60635.25,-60789.915,-8783.145,-3262.6349999999998
-10488.824999999999,-31725.135,-20741.13,-43474.005,-60640.47,-60801.884999999995,-8789.445,-3267.4049999999997
-10483.425,-31710.42,-20720.88,-43460.1,-60636.104999999996,-60817.005,-8783.46,-3264.705
-10476.539999999999,-31700.114999999998,-20709.315,-43449.03,-60624.72,-60823.619999999995,-8777.34,-3261.555
-10471.635,-31693.41,-20709.855,-43453.979999999996,-60630.075,-60834.42,-8779.005,-3262.995
-10470.869999999999,-31702.32,-20721.375,-43461.854999999996,-60629.895,-60826.454999999994,-8777.295,-3262.5899999999997
-10477.845,-31717.395,-20728.079999999998,-43455.015,-60609.555,-60786.36,-8781.48,-3267.3599999999997
-10476.675,-31711.545,-20714.715,-43442.055,-60597.99,-60757.155,-8780.445,-3267.0899999999997
-10478.88,-31709.204999999998,-20715.255,-43453.215,-60623.954999999994,-60795.99,-8775.18,-3266.2799999999997
-10469.205,-31706.235,-20722.77,-43467.975,-60650.145,-60836.985,-8768.43,-3258.54
-10472.13,-31711.815,-20728.485,-43468.965,-60640.02,-60830.954999999994,-8786.34,-3268.125
-10474.875,-31721.94,-20738.655,-43468.695,-60619.454999999994,-60793.47,-8790.435,-3270.645
-10468.305,-31716.36,-20726.684999999998,-43452.99,-60598.619999999995,-60764.49,-8780.58,-3264.48
-10458.09,-31699.844999999998,-20718.0,-43457.22,-60605.055,-60758.369999999995,-8781.3,-3260.25
-10451.115,-31697.864999999998,-20728.755,-43469.595,-60613.11,-60770.655,-8791.199999999999,-3258.99
-10457.775,-31710.78,-20731.23,-43463.655,-60608.159999999996,-60772.59,-8795.25,-3258.72
-10467.27,-31725.449999999997,-20731.68,-43457.04,-60604.604999999996,-60770.835,-8787.914999999999,-3254.7599999999998
-10446.705,-31694.129999999997,-20705.535,-43450.244999999995,-60615.494999999995,-60785.505,-8783.82,-3241.5299999999997
-10431.72,-31674.645,-20690.73,-43442.505,-60616.17,-60803.325,-8791.695,-3233.115
-10437.39,-31687.739999999998,-20705.94,-43456.095,-60632.369999999995,-60835.814999999995,-8793.99,-3230.5049999999997
-10451.744999999999,-31715.684999999998,-20728.98,-43469.145,-60631.335,-60834.689999999995,-8789.49,-3232.305
-10433.925,-31690.62,-20688.704999999998,-43416.494999999995,-60558.704999999994,-60733.799999999996,-8775.36,-3219.12
-10431.404999999999,-31695.795,-20699.415,-43430.354999999996,-60571.845,-60718.68,-8762.265,-3205.98
-10438.289999999999,-31709.61,-20718.09,-43452.09,-60591.689999999995,-60737.085,-8774.82,-3206.9249999999997
-10458.045,-31732.875,-20740.5,-43467.435,-60598.259999999995,-60756.119999999995,-8784.0,-3216.6
-10458.63,-31734.945,-20746.53,-43470.18,-60595.695,-60754.454999999994,-8796.69,-3218.7149999999997
-10428.93,-31703.94,-20722.005,-43450.244999999995,-60579.585,-60738.299999999996,-8796.105,-3201.0299999999997
-10434.24,-31699.62,-20706.075,-43434.854999999996,-60572.43,-60752.384999999995,-8789.355,-3203.685
-10440.27,-31713.21,-20716.649999999998,-43450.92,-60596.954999999994,-60777.72,-8774.369999999999,-3193.38
-10442.925,-31711.23,-20715.3,-43448.354999999996,-60583.005,-60730.2,-8770.68,-3199.0499999999997
-10443.105,-31709.295,-20714.805,-43445.655,-60575.67,-60684.119999999995,-8778.6,-3200.7149999999997
-10440.315,-31711.14,-20724.39,-43461.0,-60598.799999999996,-60726.284999999996,-8782.335,-3197.25
-10441.08,-31712.895,-20732.489999999998,-43471.619999999995,-60609.735,-60752.475,-8783.73,-3198.6
-10436.67,-31711.364999999998,-20730.195,-43462.034999999996,-60590.97,-60742.53,-8780.039999999999,-3195.18
-10430.82,-31701.824999999997,-20716.785,-43453.215,-60590.564999999995,-60756.39,-8770.815,-3193.9649999999997
-10423.619999999999,-31686.614999999998,-20702.79,-43444.485,-60584.49,-60753.24,-8773.199999999999,-3192.525
-10422.09,-31683.195,-20701.98,-43444.395,-60584.85,-60746.715,-8783.595,-3186.27
-10429.605,-31695.39,-20714.489999999998,-43448.58,-60579.945,-60725.79,-8797.185,-3191.58
-10428.57,-31696.92,-20711.114999999998,-43438.77,-60565.5,-60703.965,-8786.97,-3190.14
-10433.385,-31708.26,-20714.175,-43440.795,-60565.274999999994,-60698.61,-8776.664999999999,-3187.7999999999997
-10432.17,-31699.934999999998,-20704.905,-43437.6,-60562.89,-60691.005,-8781.39,-3190.095
-10428.705,-31686.704999999998,-20695.094999999998,-43430.67,-60558.345,-60689.88,-8787.555,-3191.1749999999997
-10435.68,-31696.559999999998,-20707.92,-43440.93,-60566.805,-60695.909999999996,-8784.855,-3193.335
-10437.705,-31705.92,-20715.704999999998,-43451.145,-60587.28,-60733.575,-8775.765,-3190.23
-10439.73,-31707.09,-20714.985,-43448.265,-60584.354999999996,-60750.99,-8783.865,-3194.1
-10427.445,-31696.379999999997,-20707.649999999998,-43439.22,-60563.88,-60729.795,-8780.265,-3188.25
-10432.26,-31691.789999999997,-20696.399999999998,-43424.415,-60537.555,-60688.619999999995,-8792.19,-3196.7549999999997
-10439.865,-31700.07,-20707.92,-43432.515,-60543.314999999995,-60679.619999999995,-8793.27,-3201.795
-10448.73,-31720.68,-20722.5,-43438.814999999995,-60551.369999999995,-60702.84,-8793.63,-3204.855
-10446.705,-31718.655,-20721.555,-43444.17,-60562.395,-60717.78,-8787.015,-3200.1299999999997
-10428.57,-31694.579999999998,-20710.215,-43454.205,-60591.689999999995,-60706.53,-8770.32,-3188.745
-10428.21,-31690.26,-20700.54,-43441.695,-60573.42,-60670.485,-8771.85,-3190.3199999999997
-10435.77,-31689.855,-20691.495,-43424.055,-60546.284999999996,-60684.84,-8793.36,-3202.1099999999997
-10409.355,-31659.164999999997,-20671.605,-43406.189999999995,-60523.064999999995,-60656.085,-8787.869999999999,-3187.395
-10399.815,-31658.039999999997,-20673.63,-43402.68,-60509.88,-60636.735,-8776.08,-3178.08
-10430.73,-31698.405,-20716.515,-43440.479999999996,-60542.909999999996,-60662.655,-8786.88,-3196.89
-10454.49,-31726.53,-20737.485,-43462.215,-60569.369999999995,-60685.47,-8797.32,-3210.075
-10437.119999999999,-31703.895,-20711.88,-43441.604999999996,-60555.96,-60679.215,-8784.539999999999,-3197.7
-10437.119999999999,-31697.37,-20700.45,-43434.225,-60558.615,-60681.015,-8789.625,-3199.365
-10438.065,-31692.87,-20696.535,-43435.439999999995,-60565.229999999996,-60681.869999999995,-8792.414999999999,-3200.94
-10449.135,-31712.355,-20715.344999999998,-43446.645,-60564.195,-60661.665,-8789.445,-3203.2349999999997
-10437.074999999999,-31708.17,-20708.19,-43432.875,-60543.0,-60632.235,-8776.529999999999,-3193.4249999999997
-10406.34,-31666.86,-20676.285,-43420.275,-60548.445,-60655.005,-8772.345,-3181.815
-10412.775,-31673.655,-20686.545,-43434.225,-60566.399999999994,-60690.465,-8775.225,-3182.7149999999997
-10443.69,-31715.82,-20727.719999999998,-43459.38,-60570.585,-60684.479999999996,-8797.77,-3201.2549999999997
-10457.505,-31741.425,-20754.18,-43478.82,-60582.195,-60694.335,-8788.635,-3206.8799999999997
-10440.945,-31714.92,-20724.075,-43447.77,-60553.71,-60671.97,-8787.779999999999,-3202.29
-10427.85,-31695.164999999997,-20710.89,-43444.485,-60557.939999999995,-60705.494999999995,-8796.105,-3198.645
-10402.425,-31660.829999999998,-20679.84,-43417.979999999996,-60533.685,-60698.7,-8788.904999999999,-3186.81
-10410.66,-31676.895,-20695.59,-43435.575,-60551.64,-60671.79,-8778.735,-3184.38
-10432.08,-31699.395,-20707.29,-43436.835,-60534.72,-60591.689999999995,-8781.345,-3193.02
-10432.8,-31703.805,-20707.92,-43427.115,-60517.755,-60585.57,-8772.75,-3195.855
-10432.845,-31698.719999999998,-20696.579999999998,-43422.659999999996,-60527.52,-60617.79,-8779.095,-3197.025
-10422.045,-31683.465,-20690.325,-43424.685,-60533.64,-60632.189999999995,-8782.74,-3193.1099999999997
-10428.21,-31690.079999999998,-20698.875,-43429.814999999995,-60530.625,-60621.795,-8787.195,-3197.745
-10433.43,-31698.18,-20700.315,-43421.085,-60511.994999999995,-60599.7,-8787.465,-3198.87
-10436.085,-31694.805,-20692.215,-43417.439999999995,-60516.045,-60603.119999999995,-8783.235,-3198.42
-10424.295,-31679.82,-20684.7,-43419.78,-60527.34,-60609.689999999995,-8782.515,-3193.29
-10425.645,-31692.149999999998,-20695.5,-43422.525,-60523.424999999996,-60596.505,-8779.275,-3191.535
-10427.67,-31696.335,-20696.219999999998,-43419.645,-60516.854999999996,-60574.77,-8779.14,-3192.12
-10427.715,-31690.664999999997,-20691.719999999998,-43416.045,-60511.86,-60569.549999999996,-8786.025,-3195.9
