ch_0,ch_1,ch_2,ch_3,ch_4,ch_5,ch_6,ch_7
-17532.315,-50426.369999999995,-24175.89,-43494.884999999995,-56820.869999999995,-45040.229999999996,-29047.41,3717.0
-17078.265,-49674.42,-24713.37,-43791.795,-57050.505,-45351.72,-29011.905,3949.785
-17376.57,-49408.155,-24482.835,-43956.494999999995,-57179.655,-45378.854999999996,-28929.375,4012.92
-17761.14,-49617.18,-23925.825,-43878.42,-57130.515,-45301.275,-28909.8,3946.365
-17692.695,-49786.56,-23589.629999999997,-43777.71,-57131.549999999996,-45293.22,-28884.69,3950.2799999999997
-17356.005,-49873.185,-23470.605,-43780.905,-57292.695,-45424.215,-28811.295,4053.285
-17237.655,-49705.83,-23525.774999999998,-43726.365,-57334.185,-45441.09,-28777.635,4108.32
-17423.55,-49509.945,-23620.995,-43592.805,-57211.784999999996,-45319.049999999996,-28764.405,4062.69
-17584.605,-49299.255,-23905.98,-43539.93,-56944.71,-45066.735,-28695.239999999998,4023.6299999999997
-17833.41,-49223.924999999996,-23932.8,-43805.97,-56686.14,-44739.854999999996,-28550.024999999998,4020.975
-18311.85,-49980.33,-23066.864999999998,-43304.805,-56625.975,-44622.945,-28447.695,3954.06
-18064.305,-50394.825,-23033.565,-42932.564999999995,-56652.57,-44670.24,-28380.69,4002.435
-17234.145,-49736.7,-23897.969999999998,-42949.619999999995,-56742.795,-44900.729999999996,-28442.655,4179.195
-16852.995,-48928.005,-24620.805,-43311.555,-56542.275,-44861.49,-28646.774999999998,4249.71
-16909.2,-48991.185,-24415.965,-43485.345,-56429.775,-44733.645,-28637.19,4292.19
-16980.704999999998,-49068.494999999995,-24141.87,-43359.84,-56623.365,-44813.34,-28426.14,4339.755
-17343.45,-48791.34,-23715.315,-43488.27,-56772.314999999995,-44774.595,-28301.94,4289.8949999999995
-17627.715,-48783.509999999995,-23017.995,-43688.88,-56908.979999999996,-44711.235,-28315.17,4209.48
-17336.295,-49511.835,-23088.735,-43497.99,-56658.104999999996,-44542.53,-28221.885,4276.305
-16598.25,-49902.795,-24241.815,-43091.369999999995,-56295.405,-44459.729999999996,-28104.48,4513.995
-16418.565,-48866.49,-24853.32,-43005.104999999996,-56345.265,-44694.99,-28268.01,4573.8
-16682.175,-48804.03,-24152.625,-42962.085,-56473.56,-44819.865,-28364.85,4523.04
-16913.34,-48998.97,-23569.155,-43031.61,-56537.505,-44740.08,-28274.175,4519.035
-17025.795,-49036.32,-23184.945,-42999.795,-56662.064999999995,-44741.34,-28244.925,4493.835
-17014.184999999998,-49155.659999999996,-23217.344999999998,-42877.17,-56649.195,-44713.08,-28187.46,4513.59
-17111.745,-48917.43,-23024.61,-42915.42,-56687.895,-44722.935,-28188.45,4521.87
-17186.175,-48783.825,-22999.41,-43284.15,-56430.494999999995,-44424.27,-28031.805,4527.72
-17197.605,-49019.4,-23821.11,-43330.455,-55901.159999999996,-43958.34,-27811.305,4581.63
-16956.855,-48905.729999999996,-23825.34,-42912.18,-55977.93,-44146.845,-27967.364999999998,4605.795
-16422.57,-49020.435,-24325.245,-42783.255,-56092.32,-44287.29,-27945.45,4778.6849999999995
-16453.395,-48665.655,-23965.559999999998,-42926.67,-56285.865,-44459.145,-27984.914999999997,4811.8949999999995
-16865.37,-48656.295,-23166.0,-43020.54,-56285.729999999996,-44432.145,-28037.52,4718.16
-17139.149999999998,-48644.28,-22713.12,-43102.665,-56273.354999999996,-44305.784999999996,-27945.539999999997,4683.42
-16974.405,-48835.575,-23274.27,-43026.659999999996,-56097.27,-44078.445,-27711.539999999997,4764.42
-16554.78,-48978.765,-24205.86,-42795.854999999996,-55959.255,-43981.02,-27596.114999999998,4889.88
-16265.025,-48849.615,-23554.079999999998,-42643.305,-56363.895,-44365.095,-27765.719999999998,4905.764999999999
-16216.83,-48627.494999999995,-22846.454999999998,-42568.38,-56605.005,-44622.18,-27909.045,4878.72
-16467.12,-48479.31,-22448.295,-42553.619999999995,-56522.924999999996,-44616.645,-27927.315,4856.3099999999995
-16723.305,-48575.34,-22632.344999999998,-43109.189999999995,-55990.665,-44085.825,-27720.45,4886.595
-17352.855,-48856.59,-22877.594999999998,-42909.435,-55540.395,-43525.259999999995,-27566.55,4728.014999999999
-17269.02,-49105.71,-23320.71,-42612.255,-55503.54,-43335.314999999995,-27340.965,4776.255
-16377.3,-49114.799999999996,-24020.504999999997,-42478.02,-55648.845,-43633.755,-27340.649999999998,5013.2699999999995
-15573.599999999999,-48294.9,-24126.39,-42481.08,-55947.689999999995,-44198.369999999995,-27658.125,5146.47
-15644.474999999999,-48020.625,-23754.915,-42504.93,-55964.43,-44281.575,-27711.27,5145.255
-15940.035,-48125.564999999995,-23157.45,-42476.085,-56010.195,-44277.57,-27728.1,5116.905
-16069.185,-48159.18,-22866.57,-42526.575,-56060.729999999996,-44246.115,-27787.59,5127.075
-16195.68,-48226.229999999996,-23176.35,-42605.865,-55891.979999999996,-43998.255,-27582.885,5168.5199999999995
-16438.454999999998,-48232.89,-22939.29,-42558.165,-55808.055,-43850.835,-27464.579999999998,5102.595
-16624.395,-48105.854999999996,-22305.195,-42593.13,-55868.625,-43837.74,-27415.62,5041.125
-16543.215,-48341.43,-22500.675,-42540.84,-55744.829999999994,-43733.97,-27292.545,5091.885
-16332.705,-48424.095,-23146.965,-42485.445,-55619.505,-43587.765,-27143.594999999998,5223.105
-16376.49,-48234.689999999995,-22940.37,-42541.965,-55723.32,-43632.45,-27213.57,5209.155
-16422.93,-48443.49,-22959.315,-42257.385,-55556.549999999996,-43545.825,-27188.504999999997,5198.49
-16250.265,-48668.715,-22860.315,-42051.015,-55666.53,-43692.435,-27113.895,5285.61
-16189.695,-48757.229999999996,-22333.094999999998,-42021.494999999995,-55768.14,-43776.45,-27089.46,5338.035
-15995.97,-48507.705,-22462.559999999998,-42128.1,-55728.9,-43753.185,-27083.7,5368.095
-15791.849999999999,-47802.915,-23353.155,-42706.395,-55567.935,-43567.47,-27006.075,5445.405
-15765.57,-47862.225,-23547.015,-42836.58,-55489.994999999995,-43438.005,-26951.085,5520.0599999999995
-15826.904999999999,-47861.369999999995,-23004.045,-42456.689999999995,-55653.075,-43637.625,-27084.329999999998,5478.21
-15944.31,-47718.945,-21952.395,-41856.39,-55924.29,-44007.345,-27313.02,5383.3949999999995
-15789.555,-48024.585,-21490.515,-41779.439999999995,-55917.674999999996,-43983.36,-27268.289999999997,5395.7699999999995
-15502.14,-48224.07,-22555.98,-42048.99,-55488.509999999995,-43599.735,-27011.565,5538.0599999999995
-15624.675,-47676.78,-23644.44,-42448.814999999995,-55010.52,-43179.21,-26847.27,5625.315
-16261.335,-47309.04,-22190.129999999997,-42282.18,-55210.005,-43322.4,-27140.535,5389.245
-16426.17,-47738.43,-21258.585,-42151.095,-55245.555,-43283.61,-27131.985,5313.735
-15686.505,-48836.7,-22610.655,-41879.924999999996,-54969.255,-43018.11,-26658.18,5638.41
-15167.295,-48288.645,-23786.954999999998,-41851.08,-55063.665,-43122.689999999995,-26591.67,5799.285
-15628.904999999999,-47422.979999999996,-22856.715,-42108.57,-55315.53,-43266.195,-26749.26,5654.385
-15920.144999999999,-47602.35,-22229.37,-42121.799999999996,-55282.454999999994,-43177.545,-26731.71,5567.085
-15782.445,-47920.95,-22198.905,-41757.299999999996,-55213.965,-43230.78,-26691.84,5592.554999999999
-15559.154999999999,-48040.064999999995,-22069.17,-41599.935,-55270.259999999995,-43339.14,-26650.844999999998,5693.625
-15440.265,-47920.545,-21834.719999999998,-41813.82,-55386.405,-43389.765,-26717.489999999998,5748.3
-15300.09,-47540.61,-22398.885,-41826.15,-55307.07,-43318.305,-26729.28,5835.105
-15160.095,-47168.145,-22621.905,-41912.64,-55266.299999999996,-43315.47,-26669.43,5880.285
-15365.564999999999,-47258.549999999996,-22584.96,-42048.81,-55101.104999999996,-43152.165,-26553.42,5857.155
-15641.369999999999,-47445.84,-22299.21,-42062.49,-55060.38,-43010.595,-26459.864999999998,5840.73
-15479.234999999999,-47790.585,-22460.715,-42015.869999999995,-54994.454999999994,-42919.11,-26401.995,5919.344999999999
-15206.939999999999,-47854.259999999995,-22629.645,-41623.604999999996,-55068.39,-43049.34,-26471.789999999997,6006.51
-15226.515,-47407.005,-22059.719999999998,-41562.27,-55356.704999999994,-43302.195,-26526.78,5970.105
-15442.019999999999,-46870.335,-21375.36,-41730.165,-55384.155,-43301.52,-26602.785,5820.885
-15660.855,-46900.755,-21383.73,-41993.369999999995,-54958.994999999995,-42884.055,-26526.239999999998,5758.065
-15638.49,-47658.15,-22386.105,-41798.295,-54346.77,-42399.72,-26309.7,5833.53
-15272.189999999999,-47898.0,-22725.809999999998,-41329.485,-54386.055,-42506.505,-26318.789999999997,5951.16
-15101.144999999999,-47363.85,-22131.855,-41441.445,-54732.78,-42825.465,-26480.475,6017.67
-15213.195,-47605.634999999995,-21290.579999999998,-41639.939999999995,-54927.405,-42945.345,-26407.215,6057.315
-15386.4,-47958.165,-21352.005,-41526.494999999995,-54795.015,-42788.07,-26193.015,6074.594999999999
-15195.105,-47377.305,-22491.989999999998,-41495.805,-54709.064999999995,-42699.6,-26132.355,6140.07
-14931.81,-46969.244999999995,-22662.629999999997,-41478.885,-54817.695,-42851.025,-26186.265,6195.554999999999
-14795.64,-47003.265,-21986.774999999998,-41418.09,-55013.445,-43075.89,-26266.77,6238.304999999999
-14886.99,-46949.49,-21528.27,-41613.705,-55122.03,-43086.689999999995,-26253.36,6235.469999999999
-15122.295,-47363.759999999995,-21291.614999999998,-41626.26,-54965.025,-42849.18,-26109.495,6243.21
-15174.855,-47648.475,-22018.905,-41554.89,-54587.564999999995,-42518.88,-25924.14,6284.025
-15003.585,-47295.72,-22516.559999999998,-41329.215,-54465.479999999996,-42536.295,-26016.12,6285.554999999999
-14973.66,-47232.54,-21792.059999999998,-41423.76,-54650.34,-42727.32,-26144.594999999998,6262.2
-15341.265,-46934.46,-20468.835,-41302.979999999996,-55014.345,-42912.9,-26260.515,6064.0199999999995
-15466.635,-47264.895,-20001.78,-41111.64,-54930.24,-42649.92,-26143.965,5994.45
-14804.189999999999,-47383.695,-22173.434999999998,-40911.615,-54390.284999999996,-42241.095,-25747.065,6284.25
-14305.455,-46599.84,-23173.29,-41584.14,-54258.39,-42283.215,-25724.204999999998,6505.335
-14563.215,-46566.945,-22345.469999999998,-41809.59,-54372.6,-42391.755,-25832.114999999998,6491.925
-15035.67,-47046.24,-21186.855,-41399.369999999995,-54547.244999999995,-42475.14,-25881.39,6351.21
-15110.055,-47107.485,-20870.19,-41082.525,-54578.655,-42463.305,-25843.454999999998,6309.045
-14825.385,-47190.869999999995,-21233.07,-40943.475,-54540.405,-42475.59,-25716.195,6420.014999999999
-14418.765,-47064.825,-22062.78,-41098.14,-54381.735,-42429.869999999995,-25713.855,6525.0
-14365.08,-46788.84,-22210.649999999998,-41162.895,-54236.88,-42382.619999999995,-25837.739999999998,6507.36
-14278.455,-46638.72,-21870.27,-41151.645,-54392.4,-42513.39,-25849.44,6564.014999999999
-14513.939999999999,-46552.86,-21454.92,-41169.284999999996,-54427.86,-42492.015,-25866.539999999997,6551.955
-15344.01,-46284.884999999995,-20263.86,-41297.174999999996,-54553.14,-42449.49,-25896.42,6401.61
-15796.215,-46883.159999999996,-19651.635,-41128.74,-54389.43,-42186.869999999995,-25717.094999999998,6334.695
-14891.265,-48297.78,-21227.895,-40713.93,-53966.07,-41795.415,-25281.54,6615.675
-13907.744999999999,-47088.225,-22789.575,-40819.005,-54202.32,-42134.58,-25389.315,6808.094999999999
-13969.845,-45991.89,-22235.535,-41066.189999999995,-54413.685,-42428.295,-25663.95,6750.36
-14169.33,-46326.42,-21562.425,-41017.275,-54396.99,-42384.42,-25694.954999999998,6712.0199999999995
-14250.24,-46635.299999999996,-21179.925,-41325.795,-54339.93,-42219.854999999996,-25504.469999999998,6778.44
-14299.92,-46905.705,-21062.88,-41327.955,-54279.27,-42131.97,-25407.855,6817.634999999999
-14509.755,-46806.615,-20592.63,-40845.825,-54346.005,-42277.095,-25564.995,6732.719999999999
-14746.814999999999,-46129.545,-19912.184999999998,-40881.51,-54491.22,-42450.975,-25749.135,6610.005
-14553.945,-46825.11,-19825.29,-40851.314999999995,-54338.939999999995,-42301.575,-25571.789999999997,6698.34
-13918.095,-47160.18,-22034.43,-40751.865,-53918.64,-41878.439999999995,-25178.219999999998,6948.495
-13941.449999999999,-46108.439999999995,-22597.469999999998,-41082.119999999995,-53839.619999999995,-41716.755,-25221.96,6890.355
-14504.805,-46215.494999999995,-21311.594999999998,-40778.189999999995,-53797.86,-41677.83,-25429.77,6622.2
-14676.57,-46136.25,-20843.954999999998,-40391.729999999996,-53752.5,-41692.32,-25430.67,6601.1849999999995
-14389.289999999999,-46204.155,-20587.454999999998,-40477.994999999995,-53864.729999999996,-41902.695,-25389.765,6750.2699999999995
-14048.955,-46275.795,-20752.965,-40741.47,-53910.72,-41972.445,-25332.614999999998,6874.245
-14099.805,-46355.85,-20749.86,-40796.955,-53891.865,-41890.409999999996,-25253.684999999998,6944.67
-14239.755,-46566.18,-20699.82,-40626.45,-53933.715,-41846.085,-25138.35,6960.69
-14232.015,-46578.645,-20989.665,-40342.365,-53811.81,-41676.84,-25081.379999999997,6932.88
-14382.585,-46492.335,-20933.82,-40424.805,-53785.395,-41569.29,-24992.28,6951.285
-14261.939999999999,-46346.445,-20798.64,-40944.825,-53793.765,-41579.82,-24946.515,7040.295
-13781.564999999999,-46527.479999999996,-21315.645,-40947.345,-53739.674999999996,-41652.18,-24967.305,7167.42
-13518.855,-46004.04,-21318.66,-40577.985,-53951.939999999995,-42019.29,-25176.285,7177.32
-13789.35,-45624.735,-20887.559999999998,-40405.725,-54035.64,-42083.955,-25229.204999999998,7117.29
-14071.32,-45696.6,-20403.45,-40390.965,-54063.945,-41971.32,-25148.655,7047.09
-14071.23,-46306.935,-20037.239999999998,-40431.33,-53910.585,-41751.18,-24978.42,7081.695
-14118.84,-46642.994999999995,-19877.399999999998,-40631.354999999996,-53794.575,-41600.025,-24789.239999999998,7167.6449999999995
-14174.144999999999,-46441.755,-20442.195,-40789.305,-53565.659999999996,-41385.915,-24745.41,7135.514999999999
-14120.279999999999,-46496.79,-21210.93,-40456.979999999996,-53188.064999999995,-41124.42,-24828.84,7060.365
-14096.564999999999,-46354.545,-21275.505,-40213.845,-53213.579999999994,-41178.195,-24898.14,7060.094999999999
-13943.25,-45696.375,-20918.25,-40283.1,-53572.229999999996,-41543.505,-24991.29,7124.445
-13722.84,-45487.395,-20624.355,-40321.755,-53699.04,-41695.064999999995,-25016.94,7179.389999999999
-13651.515,-45953.415,-20401.29,-40137.165,-53570.744999999995,-41580.36,-24983.37,7193.205
-13607.369999999999,-46311.659999999996,-20282.445,-39919.86,-53457.345,-41435.775,-24931.079999999998,7234.11
-13890.285,-45965.655,-19908.945,-40148.549999999996,-53628.884999999995,-41466.689999999995,-24821.28,7233.21
-14702.13,-45322.29,-19212.704999999998,-40582.395,-53763.615,-41364.18,-24624.629999999997,7121.61
-14645.34,-45774.18,-19464.885,-40579.56,-53705.97,-41229.854999999996,-24460.785,7240.995
-13397.13,-47138.625,-20814.75,-39930.479999999996,-53559.134999999995,-41344.695,-24316.2,7607.969999999999
-12668.67,-46450.845,-20940.344999999998,-39830.625,-53768.384999999995,-41853.735,-24697.665,7629.03
-12972.51,-45580.095,-20667.015,-39922.155,-53623.305,-41768.865,-24909.704999999998,7472.835
-13272.84,-45730.53,-20849.13,-40232.205,-53205.525,-41310.27,-24699.105,7493.13
-13618.35,-45673.47,-20868.704999999998,-40472.64,-53125.515,-41054.625,-24502.454999999998,7480.53
-14091.975,-45584.009999999995,-19956.69,-40568.4,-53238.915,-40906.395,-24423.39,7296.255
