ch_0,ch_1,ch_2,ch_3,ch_4,ch_5,ch_6,ch_7
12354.39,-1635.615,-848.3399999999999,-2695.275,15494.58,-9132.255,624.645,17317.26
12361.994999999999,-1626.975,-839.925,-2691.0899999999997,15491.43,-9133.515,626.67,17323.785
12365.189999999999,-1623.195,-837.99,-2694.645,15472.439999999999,-9145.035,627.0749999999999,17325.675
12354.885,-1633.2749999999999,-847.53,-2701.71,15463.619999999999,-9161.01,619.875,17316.945
12346.38,-1645.74,-856.4399999999999,-2700.1349999999998,15484.32,-9154.35,618.66,17313.84
12347.775,-1644.7949999999998,-855.81,-2694.69,15506.144999999999,-9134.279999999999,620.1899999999999,17316.36
12361.41,-1629.855,-840.87,-2680.92,15520.095,-9099.539999999999,629.4599999999999,17327.97
12362.67,-1628.55,-839.52,-2682.855,15506.595,-9116.369999999999,628.605,17328.105
12360.6,-1631.7,-843.7049999999999,-2689.6949999999997,15496.38,-9145.305,627.03,17325.54
12353.67,-1639.62,-850.68,-2695.95,15493.23,-9149.039999999999,622.845,17320.41
12359.34,-1632.915,-842.355,-2684.205,15514.92,-9103.77,623.385,17325.135
12359.88,-1630.62,-840.1949999999999,-2683.575,15514.515,-9098.91,620.1899999999999,17323.649999999998
12353.355,-1637.1899999999998,-847.395,-2692.5299999999997,15499.26,-9123.705,617.805,17320.41
12357.27,-1633.32,-843.75,-2688.345,15502.275,-9121.725,622.5749999999999,17326.755
12356.73,-1635.345,-845.9549999999999,-2691.0899999999997,15493.185,-9123.57,622.53,17327.34
12352.23,-1640.1599999999999,-851.265,-2698.1549999999997,15479.595,-9135.135,616.995,17321.355
12361.635,-1630.395,-842.355,-2688.48,15490.26,-9128.699999999999,624.1949999999999,17329.23
12356.64,-1636.83,-847.89,-2692.5299999999997,15503.445,-9128.789999999999,621.135,17325.585
12360.734999999999,-1632.51,-843.3449999999999,-2688.75,15507.72,-9122.715,623.43,17330.13
12354.975,-1636.47,-847.98,-2694.5099999999998,15490.619999999999,-9133.02,617.22,17323.2
12361.68,-1628.37,-840.555,-2691.0899999999997,15477.57,-9139.41,621.0,17330.76
12364.695,-1624.365,-837.0899999999999,-2691.495,15469.875,-9147.015,621.09,17333.19
12365.369999999999,-1624.77,-836.37,-2686.815,15493.724999999999,-9143.46,619.47,17332.155
12354.39,-1636.965,-846.9449999999999,-2687.58,15521.894999999999,-9131.535,616.275,17326.395
12346.875,-1643.985,-852.7049999999999,-2691.315,15517.484999999999,-9119.925,612.54,17319.735
12350.52,-1641.24,-850.77,-2692.71,15512.355,-9112.949999999999,617.625,17323.785
12361.635,-1630.62,-840.78,-2685.69,15513.255,-9113.039999999999,625.545,17336.385
12354.345,-1639.485,-849.555,-2694.4649999999997,15502.41,-9125.01,618.435,17328.51
12355.92,-1638.945,-848.5649999999999,-2693.43,15502.455,-9124.695,619.02,17329.5
12363.795,-1630.08,-839.79,-2685.24,15508.71,-9118.395,624.285,17337.059999999998
12364.244999999999,-1629.3149999999998,-839.385,-2685.15,15508.71,-9118.664999999999,624.555,17337.69
12361.41,-1632.195,-843.66,-2690.235,15502.32,-9123.795,621.3149999999999,17335.44
12361.365,-1632.1499999999999,-844.6949999999999,-2692.305,15495.39,-9126.9,619.785,17334.855
12356.82,-1636.56,-848.52,-2697.39,15485.175,-9133.515,615.51,17330.579999999998
12351.779999999999,-1640.52,-851.4449999999999,-2698.83,15487.695,-9139.14,609.66,17324.73
12355.83,-1637.46,-847.5749999999999,-2691.9449999999997,15508.035,-9128.744999999999,613.665,17331.03
12361.68,-1632.6899999999998,-842.4,-2687.04,15509.025,-9122.22,620.145,17337.195
12359.16,-1635.03,-844.4699999999999,-2689.2,15505.92,-9123.57,618.255,17334.809999999998
12355.335,-1637.955,-848.88,-2693.745,15499.484999999999,-9129.645,614.97,17331.434999999998
12358.755,-1635.03,-847.035,-2692.2149999999997,15497.144999999999,-9129.015,615.735,17334.675
12353.984999999999,-1639.98,-851.5799999999999,-2698.785,15488.324999999999,-9137.385,610.605,17329.545
12353.984999999999,-1639.53,-851.2199999999999,-2701.17,15485.355,-9141.75,609.165,17329.32
12359.205,-1633.32,-846.135,-2698.6949999999997,15486.3,-9143.279999999999,610.785,17332.875
12360.645,-1631.2949999999998,-842.9399999999999,-2691.495,15503.31,-9127.529999999999,611.1,17335.71
12359.205,-1632.4199999999998,-844.605,-2692.575,15493.635,-9130.68,608.985,17333.01
12373.38,-1618.29,-834.8399999999999,-2687.58,15478.289999999999,-9138.734999999999,616.8149999999999,17344.485
12377.025,-1616.8049999999998,-833.85,-2690.2799999999997,15468.885,-9142.38,622.98,17350.829999999998
12358.08,-1639.8899999999999,-853.38,-2706.5699999999997,15484.5,-9146.88,612.54,17336.114999999998
12352.68,-1646.595,-853.0649999999999,-2692.5299999999997,15504.66,-9131.715,613.125,17334.809999999998
12347.01,-1651.5449999999998,-856.98,-2696.04,15498.72,-9149.67,609.48,17328.96
12357.63,-1639.485,-848.3399999999999,-2695.185,15492.555,-9156.375,614.88,17336.97
12359.699999999999,-1638.945,-848.925,-2696.31,15489.314999999999,-9142.109999999999,614.2049999999999,17337.78
12356.91,-1643.58,-852.885,-2694.645,15494.715,-9110.52,611.145,17335.395
12354.48,-1644.84,-854.55,-2699.325,15472.484999999999,-9127.935,609.885,17334.495
12350.97,-1647.1799999999998,-858.1949999999999,-2707.02,15463.349999999999,-9151.605,603.18,17328.375
12347.73,-1649.8799999999999,-859.4549999999999,-2701.71,15523.65,-9126.72,598.185,17325.315
12361.994999999999,-1634.625,-845.01,-2690.145,15525.63,-9109.619999999999,609.975,17339.805
12357.404999999999,-1639.08,-847.755,-2690.145,15517.125,-9124.965,605.385,17333.91
12359.789999999999,-1637.46,-844.74,-2687.7149999999997,15517.394999999999,-9116.82,607.995,17337.015
12365.279999999999,-1633.0049999999999,-841.905,-2687.67,15521.805,-9111.195,613.62,17343.855
12358.529999999999,-1641.105,-849.15,-2692.755,15510.06,-9121.23,610.6949999999999,17339.355
12361.635,-1638.8999999999999,-847.62,-2694.69,15488.865,-9128.789999999999,612.81,17343.0
12362.535,-1639.8,-848.52,-2696.085,15485.535,-9129.51,616.4549999999999,17345.79
12366.539999999999,-1635.885,-844.605,-2687.58,15514.965,-9122.039999999999,617.895,17348.489999999998
12366.135,-1636.695,-845.55,-2687.265,15528.06,-9123.435,615.24,17347.635
12368.654999999999,-1633.32,-842.2199999999999,-2685.1949999999997,15522.255,-9121.5,615.42,17349.524999999998
12371.895,-1629.675,-837.7199999999999,-2680.065,15529.41,-9104.67,618.885,17351.595
12358.755,-1644.03,-852.12,-2696.22,15509.564999999999,-9122.535,609.885,17340.12
12357.404999999999,-1645.695,-854.73,-2699.505,15503.67,-9128.52,608.13,17338.995
12362.31,-1640.4299999999998,-849.87,-2695.095,15507.224999999999,-9124.92,611.3249999999999,17343.809999999998
12358.305,-1644.9299999999998,-854.01,-2699.37,15501.824999999999,-9130.095,607.635,17339.535
12362.445,-1641.195,-851.355,-2695.77,15503.31,-9128.565,609.03,17343.989999999998
12360.06,-1643.6699999999998,-854.9549999999999,-2699.235,15499.215,-9132.66,606.87,17341.02
12369.555,-1633.365,-844.92,-2690.235,15507.359999999999,-9124.02,613.125,17350.38
12370.23,-1632.24,-843.5699999999999,-2689.875,15507.585,-9124.289999999999,613.26,17351.684999999998
12366.404999999999,-1636.29,-846.765,-2693.43,15504.119999999999,-9127.8,610.6949999999999,17348.985
12370.365,-1632.465,-842.67,-2689.74,15506.955,-9124.515,613.305,17352.135
12363.21,-1640.25,-850.0949999999999,-2696.4449999999997,15500.925,-9130.32,607.995,17345.61
12363.57,-1639.8899999999999,-850.5,-2697.255,15499.305,-9132.975,606.78,17346.105
12366.63,-1637.37,-847.53,-2695.3199999999997,15501.285,-9131.49,607.995,17348.985
12358.664999999999,-1646.415,-854.73,-2701.98,15496.785,-9135.63,600.885,17340.57
12358.755,-1645.6499999999999,-854.8199999999999,-2701.935,15496.74,-9136.035,601.785,17342.01
12365.1,-1639.845,-850.005,-2699.055,15497.55,-9138.24,606.9599999999999,17349.66
12362.58,-1641.195,-852.165,-2699.145,15498.18,-9135.99,604.035,17346.51
12361.545,-1642.905,-854.505,-2701.5299999999997,15497.955,-9134.73,603.855,17346.735
12363.345,-1642.365,-853.56,-2701.62,15496.154999999999,-9142.289999999999,602.505,17346.51
12372.119999999999,-1632.645,-842.265,-2691.225,15504.3,-9140.22,603.27,17352.36
12372.074999999999,-1629.225,-836.055,-2681.145,15517.125,-9130.005,599.67,17349.975
12364.244999999999,-1639.3049999999998,-846.27,-2690.865,15511.32,-9123.255,605.43,17347.905
12350.609999999999,-1657.935,-867.42,-2714.7149999999997,15485.984999999999,-9138.914999999999,601.11,17339.399999999998
12351.869999999999,-1655.7749999999999,-865.17,-2712.915,15487.244999999999,-9139.23,598.41,17339.67
12359.97,-1646.145,-856.0799999999999,-2704.0499999999997,15491.97,-9136.215,600.3,17346.239999999998
12362.85,-1643.31,-853.29,-2702.97,15484.41,-9140.49,600.66,17348.445
12360.869999999999,-1645.335,-856.0799999999999,-2707.29,15473.744999999999,-9146.475,599.22,17347.32
12355.289999999999,-1651.59,-861.66,-2711.3849999999998,15480.494999999999,-9147.105,593.8199999999999,17341.559999999998
12357.404999999999,-1648.8899999999999,-858.51,-2703.105,15507.494999999999,-9131.355,595.7099999999999,17344.35
12364.56,-1642.2749999999999,-853.4699999999999,-2699.325,15515.595,-9123.84,601.11,17351.415
12362.625,-1644.3899999999999,-856.62,-2706.12,15499.394999999999,-9136.125,598.77,17348.309999999998
12354.525,-1651.2749999999999,-860.7149999999999,-2709.9449999999997,15492.734999999999,-9144.09,591.975,17341.245
12352.455,-1653.48,-859.365,-2704.455,15499.305,-9136.8,593.55,17342.595
12344.445,-1662.57,-868.905,-2712.96,15491.16,-9142.47,589.725,17336.745
12344.22,-1662.3899999999999,-870.3,-2715.5699999999997,15488.414999999999,-9145.17,587.385,17335.98
12347.64,-1658.61,-867.645,-2714.04,15488.91,-9144.449999999999,589.5,17339.265
12349.935,-1655.82,-864.81,-2712.5099999999998,15489.494999999999,-9144.27,589.725,17343.18
12344.715,-1660.0049999999999,-869.04,-2717.37,15485.4,-9145.755,586.845,17338.41
12352.859999999999,-1652.625,-861.39,-2711.97,15486.3,-9141.57,591.165,17345.52
12362.805,-1642.905,-853.56,-2705.805,15483.779999999999,-9144.855,597.285,17353.44
12362.22,-1642.95,-856.125,-2713.95,15464.699999999999,-9163.17,593.4599999999999,17351.73
12361.68,-1642.5,-857.43,-2717.91,15454.26,-9173.43,590.805,17350.2
12357.72,-1645.83,-858.735,-2713.14,15463.125,-9165.285,588.555,17346.735
12347.324999999999,-1656.495,-864.99,-2704.365,15490.845,-9145.35,583.3349999999999,17338.68
12333.285,-1674.7649999999999,-881.37,-2715.165,15488.234999999999,-9152.055,579.15,17330.805
12336.029999999999,-1674.855,-884.43,-2726.19,15493.365,-9154.664999999999,583.11,17335.934999999998
12335.085,-1674.6299999999999,-883.26,-2728.08,15489.224999999999,-9153.539999999999,577.7099999999999,17332.2
12342.51,-1663.605,-872.55,-2718.495,15483.96,-9147.555,578.79,17337.239999999998
12353.984999999999,-1652.49,-864.54,-2714.04,15474.779999999999,-9165.914999999999,587.8349999999999,17348.579999999998
12355.38,-1651.5449999999998,-863.235,-2708.775,15495.435,-9148.32,591.525,17351.46
12345.119999999999,-1661.85,-871.245,-2708.955,15521.13,-9105.345,583.74,17342.595
12345.119999999999,-1662.345,-871.6949999999999,-2711.205,15512.805,-9114.345,583.605,17342.235
12340.845,-1666.35,-877.3199999999999,-2720.745,15492.734999999999,-9140.13,578.61,17337.195
12340.574999999999,-1667.34,-879.165,-2722.725,15486.705,-9145.98,577.62,17336.745
12338.955,-1669.59,-880.6949999999999,-2724.8399999999997,15484.185,-9148.815,575.865,17334.945
12340.755,-1667.745,-879.2099999999999,-2723.805,15484.275,-9149.355,575.64,17337.51
12343.185,-1664.1899999999998,-875.5649999999999,-2719.08,15486.885,-9147.96,574.785,17339.67
12351.689999999999,-1654.74,-866.3399999999999,-2710.395,15494.715,-9139.68,581.0849999999999,17347.59
12356.189999999999,-1650.735,-863.73,-2709.0899999999997,15495.705,-9139.23,586.305,17352.72
12361.32,-1647.3149999999998,-860.9399999999999,-2706.5699999999997,15498.18,-9136.17,594.36,17359.515
12355.425,-1655.37,-867.915,-2711.9249999999997,15493.185,-9139.994999999999,589.995,17354.204999999998
12345.435,-1665.3149999999998,-877.68,-2721.825,15482.835,-9149.895,581.715,17344.395
12342.06,-1667.52,-879.615,-2724.21,15480.18,-9152.73,577.845,17340.614999999998
12345.75,-1663.47,-875.295,-2720.745,15483.105,-9151.065,579.06,17343.945
12348.81,-1660.1399999999999,-873.405,-2718.765,15484.859999999999,-9148.994999999999,580.4549999999999,17347.635
12351.195,-1657.26,-871.92,-2718.495,15483.779999999999,-9150.39,579.9599999999999,17349.345
12354.57,-1653.48,-867.42,-2714.22,15480.09,-9150.164999999999,581.625,17351.01
12357.63,-1651.185,-864.405,-2712.015,15477.164999999999,-9146.88,585.18,17354.61
12364.244999999999,-1645.7849999999999,-860.175,-2707.38,15487.785,-9142.154999999999,589.4549999999999,17361.225
12363.975,-1649.07,-862.38,-2704.275,15508.035,-9132.795,592.6949999999999,17363.295
12352.545,-1661.2649999999999,-874.4399999999999,-2719.2599999999998,15492.195,-9146.385,583.245,17352.63
12352.095,-1659.915,-873.675,-2719.35,15486.119999999999,-9151.785,580.23,17352.495
12352.545,-1659.375,-871.605,-2715.975,15491.385,-9149.984999999999,578.745,17352.36
12346.425,-1665.945,-878.2199999999999,-2721.015,15488.505,-9149.175,572.895,17344.53
12356.73,-1655.865,-869.85,-2716.83,15478.56,-9146.385,579.285,17353.98
12359.97,-1653.03,-867.1949999999999,-2718.18,15463.71,-9154.215,582.12,17357.76
12361.5,-1651.05,-866.385,-2721.42,15453.045,-9171.494999999999,579.915,17358.12
12356.145,-1656.945,-870.615,-2717.19,15481.574999999999,-9171.27,579.285,17355.78
12351.42,-1662.84,-873.3149999999999,-2711.205,15510.375,-9154.08,580.8149999999999,17354.97
12355.83,-1658.7,-867.555,-2702.97,15526.664999999999,-9119.295,585.27,17358.57
12357.359999999999,-1656.36,-866.16,-2705.67,15512.67,-9122.49,582.975,17358.21
12357.494999999999,-1655.7749999999999,-866.025,-2709.225,15496.335,-9136.305,583.56,17358.75
12356.82,-1656.405,-868.05,-2712.7349999999997,15486.795,-9145.08,583.3349999999999,17358.93
