ch_0,ch_1,ch_2,ch_3,ch_4,ch_5,ch_6,ch_7
4831.785,-17435.7,31232.16,10595.385,8968.455,-23222.52,11630.88,-761.04
4809.51,-17454.78,31216.86,10585.574999999999,8972.685,-23182.335,11638.305,-784.98
4793.3099999999995,-17468.864999999998,31200.75,10568.52,8966.385,-23145.795,11646.18,-803.745
4785.4349999999995,-17475.075,31198.094999999998,10568.43,8969.039999999999,-23125.23,11646.539999999999,-810.0
4784.175,-17478.945,31197.914999999997,10575.18,8977.05,-23117.94,11645.279999999999,-806.76
4781.88,-17482.32,31190.67,10568.835,8970.074999999999,-23129.415,11636.775,-809.5949999999999
4786.47,-17475.255,31193.37,10568.205,8967.375,-23141.475,11637.585,-805.86
4780.485,-17485.829999999998,31185.855,10560.24,8956.619999999999,-23169.375,11635.47,-807.975
4804.605,-17448.57,31220.01,10584.945,8967.15,-23201.91,11618.324999999999,-790.605
4807.755,-17443.44,31223.25,10579.59,8953.56,-23246.594999999998,11603.654999999999,-788.76
4812.974999999999,-17425.215,31227.344999999998,10579.545,8952.66,-23250.375,11602.08,-787.995
4806.09,-17445.555,31218.885,10581.345,8960.895,-23213.07,11619.72,-787.5899999999999
4774.1849999999995,-17501.625,31172.94,10543.635,8933.31,-23183.504999999997,11645.685,-803.5649999999999
4764.42,-17510.94,31167.18,10540.125,8939.25,-23145.434999999998,11650.904999999999,-812.655
4753.62,-17538.345,31157.145,10541.925,8947.619999999999,-23135.76,11649.779999999999,-827.01
4739.04,-17545.635,31143.51,10526.94,8933.715,-23154.66,11628.27,-843.03
4769.91,-17496.18,31179.329999999998,10546.965,8939.654999999999,-23168.745,11614.904999999999,-821.295
4801.23,-17458.47,31203.809999999998,10555.289999999999,8926.02,-23212.035,11612.744999999999,-794.43
4816.53,-17437.995,31212.585,10548.855,8899.83,-23273.19,11602.484999999999,-780.8399999999999
4825.349999999999,-17424.855,31234.004999999997,10577.88,8934.615,-23263.2,11601.9,-768.6899999999999
4798.845,-17459.145,31217.76,10595.475,8984.97,-23203.44,11618.955,-787.05
4775.76,-17491.32,31185.18,10574.91,8984.34,-23161.95,11639.97,-804.06
4763.16,-17509.454999999998,31167.495,10554.074999999999,8965.17,-23138.37,11649.555,-815.7149999999999
4757.3099999999995,-17521.829999999998,31156.559999999998,10542.285,8954.055,-23127.975,11649.645,-820.17
4756.5,-17518.095,31161.195,10546.515,8954.91,-23128.065,11642.31,-821.745
4753.845,-17517.149999999998,31162.274999999998,10546.02,8951.4,-23140.079999999998,11631.51,-826.155
4741.785,-17522.774999999998,31157.055,10536.48,8938.529999999999,-23165.864999999998,11621.835,-837.135
4753.53,-17499.015,31170.42,10540.08,8933.67,-23193.045,11611.08,-831.6899999999999
4782.285,-17464.005,31198.23,10563.029999999999,8945.414999999999,-23223.239999999998,11600.46,-810.045
4809.554999999999,-17432.505,31223.879999999997,10584.539999999999,8957.88,-23243.985,11597.22,-786.735
4791.195,-17456.355,31204.754999999997,10569.645,8946.675,-23248.575,11602.619999999999,-803.0699999999999
4769.505,-17481.195,31183.559999999998,10552.994999999999,8940.6,-23216.895,11611.484999999999,-821.2049999999999
4767.84,-17476.605,31182.39,10546.244999999999,8939.43,-23174.64,11621.609999999999,-823.3199999999999
4748.58,-17496.63,31167.855,10533.06,8930.925,-23160.69,11630.97,-829.98
4757.849999999999,-17517.105,31168.844999999998,10554.074999999999,8956.98,-23132.79,11646.0,-811.17
4767.345,-17525.34,31157.954999999998,10550.52,8959.41,-23127.57,11651.175,-807.975
4767.57,-17508.239999999998,31165.515,10550.205,8954.64,-23143.995,11638.619999999999,-818.73
4768.245,-17492.355,31174.065,10551.06,8944.74,-23181.975,11615.58,-824.265
4792.23,-17464.454999999998,31204.934999999998,10578.42,8960.58,-23206.59,11608.425,-795.1949999999999
4792.815,-17457.21,31215.78,10587.465,8961.48,-23237.864999999998,11607.93,-786.735
4790.385,-17459.415,31207.86,10577.609999999999,8954.145,-23237.055,11614.859999999999,-788.805
4766.985,-17495.055,31177.71,10556.505,8946.404999999999,-23209.605,11626.02,-807.7049999999999
4748.849999999999,-17510.489999999998,31161.51,10538.055,8934.21,-23180.04,11629.71,-829.89
4747.095,-17507.34,31152.96,10523.97,8929.71,-23154.704999999998,11631.6,-838.8449999999999
4753.98,-17489.655,31161.375,10531.44,8939.565,-23143.05,11633.715,-833.2199999999999
4739.085,-17519.805,31147.11,10526.13,8933.625,-23155.425,11626.47,-840.9599999999999
4756.86,-17496.54,31166.774999999998,10544.355,8946.27,-23152.77,11617.109999999999,-825.165
4772.205,-17476.965,31181.309999999998,10553.85,8948.385,-23175.809999999998,11620.08,-814.9499999999999
4776.12,-17483.579999999998,31187.655,10557.72,8942.13,-23221.754999999997,11611.395,-807.8399999999999
4797.63,-17448.614999999998,31216.14,10583.055,8954.595,-23244.795,11599.244999999999,-786.78
4799.16,-17449.875,31219.739999999998,10592.369999999999,8965.395,-23236.425,11610.27,-785.385
4787.955,-17471.79,31198.41,10572.48,8953.83,-23211.18,11624.22,-797.5799999999999
4752.45,-17527.32,31155.795,10536.57,8931.96,-23182.065,11637.675,-821.0699999999999
4749.66,-17533.62,31153.815,10539.045,8940.24,-23149.62,11642.13,-821.16
4752.45,-17525.25,31152.51,10540.035,8945.055,-23141.34,11643.345,-819.405
4753.53,-17521.47,31148.145,10529.01,8934.885,-23148.989999999998,11640.285,-822.915
4733.37,-17533.62,31138.065,10520.369999999999,8930.565,-23162.489999999998,11629.935,-844.6949999999999
4736.205,-17524.62,31149.225,10528.425,8928.27,-23191.065,11614.455,-841.545
4754.385,-17500.77,31170.69,10542.33,8926.83,-23232.69,11602.035,-823.995
4770.405,-17478.945,31187.385,10557.945,8934.66,-23260.815,11593.664999999999,-810.765
4770.045,-17483.489999999998,31183.739999999998,10556.82,8939.654999999999,-23251.32,11601.585,-808.515
4760.37,-17498.07,31168.44,10542.375,8935.65,-23220.27,11612.43,-819.675
4751.01,-17515.755,31152.329999999998,10529.685,8925.93,-23189.445,11621.52,-828.54
4741.11,-17530.515,31135.77,10516.455,8919.18,-23164.155,11626.74,-834.12
4735.215,-17521.425,31152.059999999998,10538.775,8945.19,-23137.335,11623.77,-843.975
4733.6849999999995,-17520.3,31144.995,10528.02,8937.765,-23147.235,11623.68,-846.405
4725.63,-17530.47,31136.445,10519.109999999999,8925.21,-23169.329999999998,11620.755,-849.78
4734.495,-17525.79,31148.82,10528.02,8925.48,-23194.125,11606.984999999999,-840.6899999999999
4762.304999999999,-17487.09,31179.96,10553.13,8943.074999999999,-23214.735,11600.685,-816.525
4773.6449999999995,-17468.37,31196.52,10569.779999999999,8958.645,-23230.17,11601.855,-805.635
4755.285,-17486.82,31180.905,10556.46,8948.744999999999,-23236.829999999998,11606.625,-818.8199999999999
4747.05,-17502.795,31165.289999999997,10543.14,8936.82,-23220.18,11609.505,-828.9449999999999
4748.085,-17524.035,31150.53,10537.92,8936.505,-23183.774999999998,11618.46,-829.4399999999999
4737.465,-17532.0,31136.805,10518.345,8919.63,-23175.405,11621.205,-838.4399999999999
4743.855,-17521.065,31147.469999999998,10524.555,8930.16,-23148.765,11637.72,-828.4499999999999
4735.26,-17520.3,31148.73,10522.08,8929.305,-23146.695,11635.109999999999,-839.115
4738.815,-17515.62,31151.43,10525.904999999999,8927.279999999999,-23165.415,11623.904999999999,-840.555
4738.23,-17515.17,31152.96,10529.82,8923.994999999999,-23199.39,11608.785,-841.545
4750.29,-17493.21,31168.98,10541.34,8931.734999999999,-23227.605,11601.63,-827.505
4762.26,-17477.595,31176.719999999998,10554.21,8948.43,-23241.555,11596.859999999999,-819.0899999999999
4757.3099999999995,-17483.085,31176.585,10558.755,8957.34,-23232.69,11602.035,-820.26
4750.155,-17499.375,31177.17,10554.795,8953.515,-23203.44,11617.695,-819.5849999999999
4737.15,-17527.184999999998,31147.92,10527.795,8938.395,-23166.405,11635.74,-834.03
4718.295,-17548.739999999998,31119.704999999998,10505.88,8923.904999999999,-23154.84,11633.58,-851.7149999999999
4726.665,-17531.954999999998,31135.05,10518.3,8932.859999999999,-23148.09,11628.765,-846.99
4723.605,-17540.37,31127.309999999998,10509.525,8920.305,-23167.98,11619.494999999999,-852.5699999999999
4736.655,-17520.255,31145.715,10527.345,8934.435,-23166.54,11614.545,-840.24
4739.715,-17507.565,31154.489999999998,10535.265,8941.005,-23180.805,11607.21,-838.0799999999999
4752.8099999999995,-17490.915,31169.385,10551.6,8948.97,-23209.965,11603.07,-824.04
4771.755,-17464.005,31193.55,10569.645,8954.865,-23238.495,11602.26,-805.14
4767.705,-17476.739999999998,31186.574999999997,10565.19,8950.05,-23239.53,11611.035,-803.61
4753.3949999999995,-17502.48,31171.364999999998,10549.395,8937.585,-23217.614999999998,11617.244999999999,-819.045
4741.11,-17518.815,31151.969999999998,10523.52,8918.055,-23193.989999999998,11619.27,-837.27
4723.29,-17529.12,31133.295,10505.07,8908.154999999999,-23176.035,11623.41,-851.985
4720.635,-17532.27,31132.53,10517.355,8934.975,-23141.79,11630.115,-848.2049999999999
4700.745,-17553.329999999998,31115.655,10511.505,8931.869999999999,-23152.32,11622.824999999999,-862.29
4709.745,-17546.265,31126.59,10520.505,8931.734999999999,-23168.7,11615.625,-855.5849999999999
4735.3949999999995,-17517.329999999998,31154.039999999997,10540.89,8942.805,-23180.805,11608.289999999999,-835.605
4747.1849999999995,-17497.305,31168.125,10547.55,8940.285,-23219.055,11598.57,-826.9649999999999
4754.835,-17492.265,31181.129999999997,10564.605,8955.585,-23236.425,11598.119999999999,-817.3349999999999
4756.23,-17488.44,31177.89,10560.285,8951.355,-23238.54,11603.115,-817.56
4744.3949999999995,-17509.454999999998,31156.785,10539.72,8938.17,-23214.195,11614.725,-825.8399999999999
4733.865,-17525.745,31141.44,10532.43,8940.195,-23170.86,11626.47,-835.245
4729.7699999999995,-17531.91,31132.53,10521.539999999999,8931.51,-23156.235,11627.055,-842.9399999999999
4727.385,-17528.805,31134.87,10519.109999999999,8927.055,-23159.34,11622.285,-846.54
4721.085,-17529.795,31132.62,10514.115,8923.994999999999,-23163.885,11617.965,-851.985
4715.775,-17530.335,31136.445,10521.539999999999,8931.42,-23164.829999999998,11619.27,-851.4449999999999
4712.22,-17527.59,31138.559999999998,10520.46,8924.67,-23195.295,11609.055,-853.56
4722.255,-17512.605,31158.899999999998,10539.63,8934.705,-23225.085,11596.859999999999,-840.915
4758.885,-17480.07,31186.62,10566.045,8953.02,-23241.329999999998,11594.88,-813.645
4754.61,-17474.715,31176.765,10549.305,8937.09,-23252.805,11599.65,-823.0949999999999
4735.889999999999,-17507.25,31149.27,10530.855,8926.425,-23227.695,11610.9,-837.9449999999999
4717.9349999999995,-17548.515,31118.625,10507.904999999999,8911.98,-23198.399999999998,11620.484999999999,-850.365
4712.4,-17560.44,31110.704999999998,10497.51,8902.305,-23187.329999999998,11612.654999999999,-859.005
4724.73,-17537.715,31126.635,10511.279999999999,8915.31,-23174.37,11610.81,-853.245
4705.47,-17554.95,31105.934999999998,10492.38,8902.484999999999,-23185.26,11603.115,-868.545
4691.115,-17564.715,31101.03,10494.315,8910.404999999999,-23183.594999999998,11600.145,-873.7199999999999
4697.325,-17544.195,31121.954999999998,10522.98,8939.205,-23176.079999999998,11598.705,-865.2149999999999
4734.2699999999995,-17486.91,31166.28,10553.984999999999,8954.01,-23202.315,11596.32,-835.785
4741.425,-17473.184999999998,31183.245,10560.33,8950.41,-23239.754999999997,11594.07,-825.75
4750.425,-17485.38,31187.295,10562.67,8953.199999999999,-23232.645,11605.77,-814.0949999999999
4758.795,-17507.295,31162.23,10554.345,8954.46,-23199.03,11628.0,-806.895
4727.205,-17543.295,31124.43,10520.19,8927.505,-23181.48,11635.335,-836.1
4716.405,-17542.98,31124.969999999998,10516.5,8928.404999999999,-23158.26,11629.755,-849.87
4732.785,-17521.965,31144.545,10537.065,8949.779999999999,-23134.14,11633.76,-836.37
4734.99,-17513.864999999998,31150.079999999998,10538.19,8946.72,-23143.995,11629.395,-836.28
4738.905,-17505.36,31155.21,10540.215,8946.449999999999,-23153.805,11627.279999999999,-832.905
4740.12,-17504.055,31158.495,10546.965,8950.095,-23170.41,11622.734999999999,-829.035
4744.215,-17496.315,31163.265,10550.97,8945.369999999999,-23213.295,11612.205,-824.49
4760.6849999999995,-17469.27,31184.954999999998,10564.02,8947.484999999999,-23246.954999999998,11600.1,-812.79
4770.855,-17451.36,31196.114999999998,10574.865,8958.42,-23236.245,11605.41,-805.9499999999999
4750.965,-17477.82,31168.44,10554.345,8950.41,-23207.67,11617.92,-822.105
4727.205,-17513.774999999998,31135.635,10528.92,8935.02,-23177.385,11632.41,-838.26
4709.34,-17545.274999999998,31120.379999999997,10516.815,8921.88,-23171.219999999998,11629.529999999999,-850.05
4729.455,-17533.755,31140.719999999998,10534.725,8936.505,-23155.155,11631.105,-832.5899999999999
4715.595,-17540.954999999998,31131.539999999997,10531.125,8937.18,-23152.77,11625.39,-845.3249999999999
4714.5599999999995,-17543.34,31128.074999999997,10523.52,8933.895,-23160.195,11620.305,-848.79
4720.41,-17530.065,31126.41,10509.885,8915.535,-23196.149999999998,11614.365,-843.03
4741.605,-17501.94,31155.48,10536.164999999999,8926.83,-23231.385,11600.01,-825.03
4767.929999999999,-17471.295,31180.77,10552.455,8925.029999999999,-23272.739999999998,11590.92,-804.4649999999999
4760.37,-17476.965,31171.14,10544.535,8926.965,-23256.495,11608.92,-808.155
4715.595,-17525.97,31131.899999999998,10522.8,8930.835,-23211.719999999998,11623.5,-845.37
4706.775,-17538.345,31121.145,10513.71,8918.46,-23196.059999999998,11618.055,-862.56
4724.775,-17524.89,31135.184999999998,10521.18,8916.57,-23184.54,11609.82,-846.36
4734.224999999999,-17522.28,31134.51,10516.41,8914.949999999999,-23173.829999999998,11626.92,-823.005
4709.88,-17542.934999999998,31118.715,10510.83,8928.855,-23147.82,11643.435,-839.115
4686.48,-17569.17,31097.789999999997,10508.265,8940.51,-23140.44,11633.039999999999,-867.4649999999999
4694.76,-17555.535,31108.545,10513.845,8936.01,-23168.835,11618.775,-861.2099999999999
4714.2,-17520.614999999998,31139.64,10534.904999999999,8941.77,-23208.434999999998,11599.605,-847.665
4745.385,-17479.485,31171.41,10556.73,8949.33,-23237.954999999998,11585.97,-823.77
