ch_0,ch_1,ch_2,ch_3,ch_4,ch_5,ch_6,ch_7
-490.54499999999996,-19435.364999999998,-1145.79,-5256.179999999999,6295.86,-21453.344999999998,-2737.08,-1460.79
-474.16499999999996,-19446.12,-1131.93,-5254.425,6281.054999999999,-21492.899999999998,-2744.505,-1447.065
-458.59499999999997,-19433.34,-1116.225,-5252.8949999999995,6278.355,-21496.995,-2739.7349999999997,-1433.565
-501.03,-19432.575,-1143.585,-5281.335,6255.719999999999,-21501.405,-2748.69,-1466.7749999999999
-537.5699999999999,-19435.815,-1168.155,-5291.054999999999,6264.36,-21461.445,-2755.035,-1500.21
-544.41,-19439.145,-1182.4199999999998,-5295.0599999999995,6272.91,-21436.11,-2758.995,-1511.235
-536.805,-19431.045,-1180.8,-5287.005,6283.9349999999995,-21425.175,-2757.7349999999997,-1503.405
-540.63,-19411.965,-1165.23,-5292.495,6270.66,-21442.41,-2768.4449999999997,-1512.72
-515.2049999999999,-19391.355,-1131.57,-5272.065,6281.594999999999,-21437.415,-2756.3399999999997,-1495.98
-497.34,-19415.114999999998,-1125.99,-5266.665,6282.855,-21446.864999999998,-2747.295,-1466.145
-474.16499999999996,-19428.84,-1121.6699999999998,-5263.335,6278.264999999999,-21474.63,-2734.47,-1432.845
-447.03,-19423.35,-1126.26,-5277.465,6248.745,-21531.78,-2749.68,-1426.1399999999999
-447.79499999999996,-19413.855,-1104.3899999999999,-5263.29,6259.86,-21528.989999999998,-2774.205,-1434.1499999999999
-460.395,-19413.09,-1129.1399999999999,-5260.41,6273.36,-21493.98,-2768.31,-1436.985
-499.365,-19406.024999999998,-1186.02,-5289.795,6263.19,-21466.125,-2750.895,-1469.655
-547.65,-19427.805,-1229.3999999999999,-5312.88,6246.8099999999995,-21467.52,-2750.13,-1507.725
-562.05,-19442.655,-1208.205,-5313.33,6242.849999999999,-21471.84,-2769.435,-1516.32
-559.125,-19438.155,-1203.7949999999998,-5307.389999999999,6252.615,-21460.005,-2773.845,-1505.385
-542.16,-19461.059999999998,-1212.7949999999998,-5289.165,6274.485,-21442.905,-2726.37,-1497.69
-531.72,-19470.825,-1216.0349999999999,-5286.105,6268.635,-21470.219999999998,-2759.355,-1510.56
-474.12,-19452.87,-1163.52,-5257.349999999999,6278.445,-21492.855,-2809.44,-1456.965
-444.87,-19448.37,-1130.175,-5252.715,6267.51,-21526.92,-2773.08,-1403.415
-468.405,-19447.38,-1147.77,-5292.224999999999,6228.99,-21554.055,-2722.68,-1421.0549999999998
-502.78499999999997,-19460.79,-1164.24,-5294.429999999999,6250.005,-21497.94,-2744.865,-1452.87
-540.09,-19482.39,-1182.4199999999998,-5274.179999999999,6288.03,-21434.805,-2751.8849999999998,-1478.52
-551.745,-19500.795,-1200.645,-5269.23,6301.125,-21402.719999999998,-2738.295,-1482.57
-548.46,-19487.43,-1190.1599999999999,-5271.615,6301.44,-21397.59,-2739.645,-1486.395
-524.025,-19473.84,-1213.9199999999998,-5278.365,6296.67,-21408.3,-2742.795,-1473.345
-498.87,-19473.57,-1182.465,-5270.94,6290.55,-21424.59,-2743.38,-1460.2949999999998
-493.10999999999996,-19473.975,-1163.115,-5274.09,6274.485,-21456.809999999998,-2755.62,-1460.655
-461.205,-19469.969999999998,-1148.985,-5274.8099999999995,6261.4349999999995,-21496.995,-2765.475,-1436.6699999999998
-431.19,-19466.37,-1120.725,-5264.639999999999,6259.1849999999995,-21524.805,-2774.43,-1413.54
-427.455,-19458.27,-1098.8999999999999,-5244.615,6280.695,-21506.265,-2772.9449999999997,-1405.3049999999998
-462.15,-19465.785,-1121.22,-5251.815,6288.03,-21474.18,-2759.67,-1421.235
-513.9449999999999,-19470.015,-1175.6699999999998,-5289.03,6263.91,-21464.145,-2739.645,-1453.815
-550.305,-19488.015,-1201.185,-5298.075,6259.7699999999995,-21452.489999999998,-2736.54,-1481.2649999999999
-560.97,-19512.495,-1199.2949999999998,-5296.635,6261.344999999999,-21451.815,-2753.955,-1494.0
-567.405,-19508.04,-1188.81,-5298.03,6267.51,-21443.67,-2764.98,-1499.1299999999999
-543.105,-19483.875,-1162.575,-5273.505,6300.54,-21409.29,-2758.5,-1485.09
-535.23,-19473.975,-1147.77,-5268.96,6302.385,-21415.905,-2761.9649999999997,-1481.895
-513.27,-19509.975,-1135.125,-5257.98,6299.415,-21443.489999999998,-2760.705,-1459.62
-476.09999999999997,-19547.684999999998,-1135.26,-5258.5199999999995,6274.755,-21499.605,-2772.27,-1431.09
-437.13,-19572.84,-1123.74,-5242.095,6281.639999999999,-21499.515,-2762.145,-1402.02
-424.03499999999997,-19561.184999999998,-1189.71,-5253.929999999999,6282.224999999999,-21478.094999999998,-2745.54,-1399.59
-454.995,-19501.335,-1189.305,-5267.295,6278.3099999999995,-21456.719999999998,-2748.285,-1427.58
-488.07,-19496.52,-1187.55,-5271.4349999999995,6280.245,-21442.68,-2758.185,-1451.2949999999998
-494.01,-19494.045,-1189.44,-5280.48,6269.58,-21453.93,-2767.14,-1457.55
-503.325,-19493.91,-1193.355,-5294.115,6252.03,-21475.485,-2777.805,-1468.98
-486.22499999999997,-19487.024999999998,-1166.715,-5272.514999999999,6274.755,-21455.82,-2771.19,-1457.6399999999999
-472.815,-19500.84,-1145.34,-5253.345,6296.67,-21436.155,-2762.0099999999998,-1438.02
-449.325,-19513.8,-1126.665,-5241.105,6300.405,-21449.295,-2750.355,-1405.395
-427.005,-19515.329999999998,-1115.82,-5235.389999999999,6293.385,-21479.445,-2742.8399999999997,-1390.455
-436.995,-19525.005,-1128.87,-5247.72,6278.264999999999,-21499.11,-2748.4649999999997,-1400.8049999999998
-452.565,-19521.27,-1141.3799999999999,-5252.22,6282.9,-21477.69,-2761.92,-1413.495
-480.78,-19510.515,-1152.72,-5259.465,6289.92,-21438.45,-2763.18,-1429.29
-515.655,-19503.405,-1158.6599999999999,-5266.485,6295.32,-21417.434999999998,-2750.94,-1455.345
-515.2049999999999,-19500.524999999998,-1149.48,-5252.94,6313.41,-21398.985,-2745.4049999999997,-1456.695
-520.515,-19510.875,-1154.79,-5261.175,6300.63,-21416.355,-2754.765,-1459.53
-484.42499999999995,-19493.46,-1141.5149999999999,-5252.94,6306.389999999999,-21416.67,-2753.505,-1435.185
-475.83,-19500.795,-1149.615,-5258.115,6299.91,-21433.815,-2762.415,-1426.05
-461.655,-19516.364999999998,-1171.08,-5259.375,6291.405,-21462.165,-2761.515,-1413.27
-428.94,-19521.945,-1144.1699999999998,-5226.389999999999,6315.075,-21456.63,-2748.42,-1388.34
-436.815,-19517.715,-1110.51,-5216.445,6316.11,-21461.13,-2754.0899999999997,-1393.245
-462.87,-19500.12,-1113.6599999999999,-5234.94,6300.36,-21460.274999999998,-2757.5099999999998,-1408.59
-498.41999999999996,-19517.67,-1153.485,-5266.215,6283.755,-21445.155,-2754.9,-1434.51
-511.965,-19508.85,-1171.305,-5266.17,6293.25,-21422.745,-2756.025,-1444.6799999999998
-517.365,-19510.02,-1203.3,-5268.915,6295.545,-21419.505,-2761.515,-1448.5049999999999
-511.74,-19531.89,-1219.455,-5273.415,6288.21,-21434.04,-2776.815,-1449.405
-490.68,-19547.145,-1210.2749999999999,-5258.295,6298.469999999999,-21434.67,-2768.805,-1442.07
-473.805,-19508.805,-1197.54,-5282.37,6265.755,-21476.969999999998,-2762.505,-1439.865
-469.395,-19506.915,-1160.145,-5269.05,6276.87,-21474.315,-2770.38,-1425.105
-479.15999999999997,-19525.905,-1153.395,-5262.929999999999,6281.82,-21483.495,-2797.1099999999997,-1426.365
-479.25,-19534.32,-1153.575,-5267.295,6273.54,-21495.239999999998,-2780.2349999999997,-1420.83
-495.135,-19534.32,-1160.325,-5271.795,6277.995,-21470.309999999998,-2776.68,-1431.27
-524.52,-19532.475,-1199.2949999999998,-5276.835,6289.605,-21432.69,-2764.125,-1437.2549999999999
-566.8199999999999,-19538.415,-1254.4199999999998,-5300.955,6274.755,-21435.344999999998,-2757.42,-1454.985
-592.3349999999999,-19547.505,-1283.1299999999999,-5325.12,6254.505,-21448.215,-2768.4,-1479.33
-581.22,-19562.445,-1256.04,-5302.08,6271.11,-21437.415,-2779.47,-1485.45
-527.085,-19543.364999999998,-1220.1299999999999,-5270.94,6293.835,-21425.265,-2779.02,-1459.485
-481.815,-19523.07,-1200.24,-5275.485,6278.67,-21454.02,-2785.5,-1435.0049999999999
-469.755,-19539.675,-1182.915,-5272.47,6269.445,-21485.204999999998,-2789.685,-1421.55
-451.62,-19561.184999999998,-1142.5049999999999,-5246.595,6284.88,-21488.85,-2783.115,-1401.84
-408.78,-19514.16,-1108.935,-5236.245,6286.1849999999995,-21491.505,-2774.475,-1379.835
-431.41499999999996,-19497.825,-1134.315,-5246.865,6284.835,-21476.745,-2774.835,-1399.95
-503.09999999999997,-19528.29,-1205.145,-5279.8949999999995,6278.625,-21448.125,-2771.91,-1439.55
-520.47,-19526.489999999998,-1221.3899999999999,-5283.179999999999,6290.01,-21419.73,-2766.555,-1440.1799999999998
-512.865,-19517.985,-1218.24,-5282.639999999999,6284.205,-21429.719999999998,-2774.745,-1437.3899999999999
-503.59499999999997,-19501.785,-1183.68,-5263.965,6283.844999999999,-21442.635,-2792.3399999999997,-1441.485
-479.07,-19480.094999999998,-1159.02,-5257.9349999999995,6283.08,-21449.25,-2793.105,-1432.62
-484.695,-19485.719999999998,-1163.205,-5265.45,6280.29,-21456.27,-2792.475,-1435.23
-451.97999999999996,-19494.36,-1136.925,-5248.845,6295.05,-21457.98,-2778.66,-1400.22
-421.78499999999997,-19509.704999999998,-1126.35,-5243.264999999999,6289.38,-21483.945,-2775.24,-1371.2849999999999
-418.54499999999996,-19509.255,-1128.195,-5241.465,6287.175,-21490.11,-2774.97,-1368.315
-443.835,-19497.285,-1156.1399999999999,-5261.94,6271.514999999999,-21490.065,-2781.0899999999997,-1394.01
-475.56,-19491.66,-1178.325,-5273.82,6273.945,-21461.445,-2781.0,-1419.9299999999998
-495.71999999999997,-19487.07,-1179.405,-5274.0,6281.82,-21438.045,-2782.44,-1432.62
-505.66499999999996,-19492.065,-1185.435,-5267.34,6291.855,-21424.14,-2781.54,-1436.58
-500.805,-19493.37,-1183.455,-5254.83,6306.525,-21410.64,-2778.075,-1431.225
-484.38,-19488.6,-1163.205,-5238.54,6321.285,-21401.055,-2771.595,-1418.94
-483.705,-19493.325,-1165.77,-5252.49,6300.855,-21432.329999999998,-2785.3199999999997,-1420.605
-445.77,-19486.62,-1136.07,-5238.675,6303.96,-21450.149999999998,-2781.99,-1390.0049999999999
-431.01,-19501.515,-1123.695,-5235.795,6298.65,-21474.765,-2781.99,-1373.985
-427.77,-19516.005,-1130.2649999999999,-5234.22,6297.344999999999,-21478.32,-2780.73,-1370.79
-445.09499999999997,-19507.635,-1155.4199999999998,-5242.86,6293.385,-21466.665,-2784.42,-1386.495
-473.445,-19503.719999999998,-1173.915,-5246.19,6304.094999999999,-21428.28,-2777.13,-1402.9199999999998
-507.33,-19517.805,-1200.0149999999999,-5264.82,6294.87,-21419.774999999998,-2773.755,-1429.155
-493.695,-19500.57,-1185.2549999999999,-5261.94,6294.96,-21417.93,-2776.455,-1423.935
-493.60499999999996,-19494.765,-1186.875,-5273.46,6282.36,-21430.89,-2785.815,-1428.12
-462.10499999999996,-19490.715,-1149.75,-5242.545,6309.045,-21413.16,-2777.895,-1401.84
-438.93,-19501.965,-1130.94,-5232.0599999999995,6313.275,-21421.215,-2771.5499999999997,-1379.205
-422.41499999999996,-19503.719999999998,-1112.49,-5225.625,6310.9349999999995,-21445.065,-2770.875,-1363.185
-426.51,-19516.5,-1138.095,-5226.84,6307.785,-21465.09,-2778.48,-1368.0449999999998
-435.555,-19533.42,-1149.48,-5234.4,6302.385,-21467.114999999998,-2780.64,-1375.155
-460.125,-19553.355,-1179.8999999999999,-5249.5199999999995,6304.005,-21444.614999999998,-2775.555,-1390.635
-497.205,-19566.855,-1213.3799999999999,-5269.05,6298.695,-21423.375,-2775.42,-1414.44
-530.8199999999999,-19552.094999999998,-1204.47,-5274.585,6290.55,-21424.815,-2794.3199999999997,-1439.7749999999999
-524.25,-19547.505,-1200.24,-5271.3,6288.075,-21425.309999999998,-2796.075,-1434.195
-525.105,-19566.135,-1196.28,-5281.425,6265.035,-21456.719999999998,-2814.705,-1448.82
-487.89,-19566.045,-1168.02,-5270.04,6274.889999999999,-21454.425,-2813.355,-1424.8799999999999
-458.775,-19586.16,-1169.415,-5262.03,6277.59,-21468.195,-2806.1099999999997,-1409.2649999999999
-428.895,-19576.395,-1154.115,-5249.565,6265.665,-21524.76,-2808.63,-1410.12
-424.16999999999996,-19587.105,-1154.97,-5248.62,6253.11,-21565.125,-2856.645,-1410.57
-400.59,-19594.665,-1138.815,-5237.1449999999995,6264.179999999999,-21552.57,-2902.23,-1359.8999999999999
-440.325,-19637.774999999998,-1189.44,-5289.84,6232.5,-21531.195,-2778.5699999999997,-1332.945
-526.68,-19680.255,-1253.52,-5323.95,6250.32,-21430.035,-2722.815,-1407.33
-572.4449999999999,-19681.29,-1262.475,-5321.655,6271.11,-21393.36,-2789.865,-1473.165
-558.495,-19670.94,-1240.7849999999999,-5312.205,6274.844999999999,-21399.344999999998,-2808.495,-1469.07
-575.685,-19680.21,-1234.7549999999999,-5314.455,6266.385,-21419.954999999998,-2823.75,-1481.94
-553.77,-19690.29,-1208.43,-5280.974999999999,6295.7699999999995,-21402.989999999998,-2815.56,-1456.11
-530.235,-19725.39,-1226.565,-5276.07,6296.535,-21415.32,-2803.995,-1430.235
-483.57,-19743.614999999998,-1222.83,-5274.315,6290.73,-21442.86,-2802.1949999999997,-1397.8799999999999
-445.14,-19745.325,-1200.645,-5282.235,6270.03,-21481.875,-2812.005,-1381.185
-444.51,-19731.69,-1183.86,-5269.724999999999,6276.465,-21480.795,-2804.895,-1381.77
-489.015,-19751.579999999998,-1210.77,-5267.205,6281.46,-21462.434999999998,-2804.7149999999997,-1406.34
-518.22,-19764.54,-1216.08,-5260.59,6296.985,-21427.92,-2804.265,-1424.4299999999998
-524.88,-19781.82,-1236.465,-5282.235,6282.045,-21427.2,-2808.3599999999997,-1433.79
-530.73,-19792.35,-1226.1599999999999,-5281.11,6281.054999999999,-21429.09,-2822.04,-1444.77
-512.865,-19797.255,-1255.5,-5280.795,6288.48,-21421.395,-2822.04,-1430.6399999999999
-492.21,-19819.844999999998,-1260.315,-5270.94,6301.844999999999,-21411.945,-2812.14,-1408.95
-482.35499999999996,-19828.62,-1228.365,-5271.929999999999,6291.179999999999,-21436.605,-2814.975,-1408.095
-449.90999999999997,-19808.28,-1193.895,-5268.42,6276.42,-21477.69,-2828.52,-1393.9199999999998
-431.37,-19824.3,-1184.22,-5266.755,6262.155,-21514.68,-2838.1949999999997,-1378.44
-419.49,-19821.78,-1172.97,-5257.53,6268.32,-21508.38,-2828.7,-1362.33
-451.8,-19831.05,-1189.215,-5258.835,6278.67,-21477.329999999998,-2820.7799999999997,-1379.655
-482.17499999999995,-19852.605,-1223.055,-5275.9349999999995,6276.6449999999995,-21449.79,-2809.44,-1397.34
-517.23,-19881.989999999998,-1245.195,-5288.715,6272.1449999999995,-21437.64,-2816.415,-1427.715
-521.865,-19886.489999999998,-1233.675,-5279.49,6285.0599999999995,-21422.204999999998,-2823.8399999999997,-1439.415
-526.14,-19894.14,-1233.09,-5286.915,6275.025,-21435.524999999998,-2839.545,-1447.875
-501.57,-19896.93,-1199.205,-5265.585,6295.094999999999,-21419.46,-2824.38,-1416.825
-493.515,-19900.98,-1209.51,-5272.74,6287.58,-21437.46,-2826.765,-1412.28
