ch_0,ch_1,ch_2,ch_3,ch_4,ch_5,ch_6,ch_7
-10123.199999999999,-31787.414999999997,-20755.395,-43593.525,-61488.854999999996,-63093.689999999995,-9004.68,-3051.0899999999997
-10124.82,-31823.864999999998,-20805.12,-43607.655,-61487.28,-63088.92,-9002.295,-3050.19
-10125.225,-31850.145,-20836.934999999998,-43645.994999999995,-61487.46,-63084.555,-8995.455,-3048.2999999999997
-10119.555,-31844.789999999997,-20847.375,-43683.03,-61486.92,-63083.204999999994,-8998.065,-3049.605
-10113.345,-31796.37,-20807.82,-43665.39,-61486.695,-63088.11,-9009.81,-3055.77
-10094.085,-31729.5,-20746.8,-43609.545,-61463.34,-63066.689999999995,-9013.815,-3054.6
-10091.295,-31714.605,-20714.445,-43587.18,-61458.165,-63055.395,-9012.015,-3054.1949999999997
-10107.72,-31719.645,-20691.09,-43577.189999999995,-61460.82,-63064.215,-9018.494999999999,-3064.9049999999997
-10110.06,-31701.239999999998,-20657.52,-43567.244999999995,-61472.204999999994,-63084.555,-9015.66,-3067.83
-10100.07,-31706.504999999997,-20677.005,-43580.115,-61479.27,-63092.295,-9007.47,-3062.205
-10095.795,-31723.695,-20690.01,-43575.57,-61468.155,-63083.7,-9004.32,-3059.865
-10108.529999999999,-31731.84,-20684.745,-43567.515,-61452.72,-63056.43,-9019.08,-3074.7599999999998
-10103.445,-31719.239999999998,-20674.079999999998,-43563.06,-61447.77,-63040.545,-9021.645,-3075.12
-10116.27,-31747.59,-20695.995,-43575.345,-61456.049999999996,-63039.465,-9012.734999999999,-3076.065
-10122.93,-31762.844999999998,-20701.305,-43573.365,-61451.954999999994,-63031.409999999996,-9009.27,-3078.855
-10123.965,-31753.395,-20687.85,-43566.75,-61448.895,-63021.915,-9011.475,-3083.7149999999997
-10108.845,-31723.829999999998,-20669.579999999998,-43566.21,-61454.655,-63020.744999999995,-9016.244999999999,-3082.77
-10092.24,-31704.57,-20665.53,-43567.74,-61456.814999999995,-63016.829999999994,-9024.074999999999,-3081.015
-10102.815,-31732.92,-20694.329999999998,-43582.32,-61459.515,-63003.78,-9019.89,-3083.805
-10114.785,-31768.875,-20720.34,-43594.875,-61467.884999999995,-62999.189999999995,-9008.865,-3085.605
-10101.375,-31745.655,-20693.61,-43580.43,-61466.399999999994,-63005.445,-9007.289999999999,-3081.7799999999997
-10107.315,-31754.565,-20686.815,-43570.845,-61457.354999999996,-62995.229999999996,-9005.76,-3085.065
-10114.47,-31762.215,-20693.114999999998,-43574.04,-61455.869999999995,-62988.93,-9006.029999999999,-3090.825
-10118.699999999999,-31770.18,-20710.215,-43591.5,-61469.369999999995,-62994.869999999995,-9014.984999999999,-3100.545
-10104.525,-31758.614999999998,-20705.219999999998,-43591.005,-61475.579999999994,-63003.645,-9005.895,-3093.435
-10096.02,-31740.48,-20685.555,-43575.435,-61469.28,-63000.854999999996,-9006.164999999999,-3094.065
-10097.46,-31730.94,-20678.04,-43573.814999999995,-61473.24,-63011.835,-9008.595,-3097.44
-10096.289999999999,-31727.969999999998,-20688.255,-43584.119999999995,-61476.119999999995,-63009.765,-9012.779999999999,-3100.6349999999998
-10104.029999999999,-31751.1,-20714.895,-43596.9,-61468.875,-62983.619999999995,-9014.58,-3103.1549999999997
-10130.535,-31793.489999999998,-20734.92,-43600.994999999995,-61457.534999999996,-62935.155,-9013.365,-3115.35
-10124.865,-31780.26,-20697.84,-43573.905,-61443.945,-62911.71,-9009.63,-3115.17
-10110.779999999999,-31762.664999999997,-20673.18,-43561.125,-61448.445,-62932.005,-9003.33,-3109.6349999999998
-10108.664999999999,-31756.41,-20675.88,-43561.439999999995,-61452.314999999995,-62941.68,-9001.215,-3109.005
-10116.359999999999,-31756.949999999997,-20690.415,-43568.955,-61453.755,-62939.43,-9009.0,-3118.23
-10118.699999999999,-31748.129999999997,-20688.255,-43567.29,-61451.505,-62933.265,-9009.99,-3122.8199999999997
-10114.47,-31744.079999999998,-20684.16,-43568.505,-61453.619999999995,-62928.45,-9004.949999999999,-3119.4449999999997
-10118.25,-31737.105,-20675.204999999998,-43566.255,-61451.954999999994,-62919.18,-9007.244999999999,-3121.9649999999997
-10120.59,-31737.87,-20679.524999999998,-43569.945,-61453.665,-62910.674999999996,-9015.39,-3126.33
-10121.13,-31734.629999999997,-20673.54,-43566.345,-61451.954999999994,-62901.765,-9020.43,-3130.335
-10122.345,-31736.745,-20668.995,-43560.9,-61446.555,-62891.055,-9013.815,-3129.525
-10128.015,-31752.405,-20688.93,-43571.835,-61455.284999999996,-62894.61,-9007.02,-3130.47
-10130.49,-31756.545,-20690.864999999998,-43573.049999999996,-61462.71,-62910.36,-9008.73,-3133.44
-10121.49,-31742.19,-20673.54,-43567.65,-61466.174999999996,-62921.07,-9012.645,-3133.62
-10120.095,-31748.715,-20679.255,-43575.39,-61471.665,-62916.479999999996,-9012.195,-3135.87
-10119.69,-31757.715,-20682.585,-43566.39,-61452.314999999995,-62880.975,-9003.06,-3136.545
-10108.484999999999,-31747.5,-20673.765,-43559.009999999995,-61445.655,-62858.7,-9006.119999999999,-3137.805
-10094.984999999999,-31739.625,-20670.524999999998,-43556.445,-61444.215,-62847.585,-9003.869999999999,-3134.52
-10089.63,-31748.895,-20682.54,-43560.405,-61449.435,-62845.2,-8999.414999999999,-3131.46
-10091.609999999999,-31750.739999999998,-20685.51,-43564.725,-61451.729999999996,-62839.89,-9000.855,-3133.2599999999998
-10091.16,-31747.815,-20695.274999999998,-43578.405,-61457.49,-62838.134999999995,-9002.609999999999,-3135.1949999999997
-10088.055,-31748.579999999998,-20697.165,-43582.77,-61457.579999999994,-62835.119999999995,-9006.48,-3136.455
-10090.17,-31749.885,-20691.09,-43575.479999999996,-61454.52,-62832.78,-9017.1,-3144.42
-10080.81,-31738.274999999998,-20674.62,-43560.314999999995,-61447.5,-62830.034999999996,-9022.545,-3145.5899999999997
-10071.0,-31725.27,-20658.375,-43549.695,-61436.475,-62817.21,-9015.39,-3139.605
-10058.49,-31723.92,-20666.114999999998,-43559.145,-61444.439999999995,-62815.905,-9008.279999999999,-3130.47
-10071.99,-31746.015,-20675.655,-43562.88,-61450.02,-62813.295,-9005.22,-3134.115
-10069.38,-31739.489999999998,-20667.465,-43563.869999999995,-61462.89,-62825.354999999996,-9001.89,-3134.745
-10051.289999999999,-31708.35,-20657.295,-43565.354999999996,-61466.939999999995,-62820.854999999996,-9017.865,-3139.9649999999997
-10051.965,-31718.699999999997,-20675.52,-43576.02,-61466.759999999995,-62808.119999999995,-9027.359999999999,-3145.6349999999998
-10064.475,-31755.42,-20691.945,-43580.205,-61464.869999999995,-62797.634999999995,-9018.63,-3147.435
-10081.44,-31777.02,-20671.29,-43551.09,-61439.985,-62765.189999999995,-8993.43,-3145.005
-10074.375,-31770.405,-20666.925,-43552.08,-61450.02,-62774.64,-8987.265,-3142.98
-10058.625,-31749.75,-20666.43,-43557.57,-61461.405,-62793.81,-8996.715,-3143.97
-10051.92,-31735.89,-20659.905,-43549.83,-61450.965,-62786.159999999996,-9000.315,-3145.77
-10049.265,-31737.375,-20662.515,-43548.345,-61441.155,-62764.244999999995,-9000.315,-3149.595
-10046.789999999999,-31738.364999999998,-20658.87,-43550.235,-61447.14,-62760.329999999994,-9002.07,-3152.97
-10039.365,-31718.024999999998,-20642.489999999998,-43540.695,-61441.38,-62750.61,-9004.815,-3153.645
-10037.205,-31714.695,-20651.489999999998,-43551.045,-61448.399999999994,-62744.67,-9016.289999999999,-3158.8199999999997
-10048.725,-31741.335,-20668.364999999998,-43555.905,-61445.024999999994,-62730.585,-9018.045,-3165.165
-10060.244999999999,-31764.555,-20669.489999999998,-43545.284999999996,-61433.774999999994,-62711.82,-9000.81,-3164.4449999999997
-10054.44,-31753.035,-20668.23,-43553.97,-61447.095,-62717.715,-8988.93,-3158.37
-10043.279999999999,-31735.079999999998,-20669.309999999998,-43561.755,-61453.305,-62721.54,-8994.42,-3156.615
-10041.119999999999,-31744.305,-20672.82,-43562.34,-61454.34,-62723.43,-8995.68,-3156.8399999999997
-10033.47,-31746.78,-20660.13,-43553.88,-61449.524999999994,-62723.79,-8997.164999999999,-3156.525
-10027.35,-31740.12,-20652.885,-43552.215,-61450.2,-62719.38,-9002.52,-3156.93
-10033.695,-31744.754999999997,-20674.215,-43564.59,-61451.235,-62707.994999999995,-9008.64,-3162.015
-10033.605,-31748.805,-20685.465,-43566.615,-61445.97,-62693.82,-9003.42,-3159.54
-10046.16,-31757.895,-20681.28,-43562.34,-61447.59,-62683.515,-8997.75,-3163.9049999999997
-10036.8,-31737.914999999997,-20654.55,-43543.17,-61438.32,-62671.32,-8998.605,-3161.835
-10036.89,-31733.1,-20647.079999999998,-43541.729999999996,-61440.03,-62668.079999999994,-9004.545,-3166.74
-10028.115,-31724.82,-20652.48,-43549.155,-61445.07,-62670.645,-9006.39,-3166.1549999999997
-10010.88,-31712.94,-20646.225,-43540.695,-61432.604999999996,-62660.295,-9000.494999999999,-3158.595
-10026.18,-31752.449999999997,-20681.415,-43568.235,-61452.99,-62671.454999999994,-9002.205,-3166.1549999999997
-10036.845,-31786.829999999998,-20704.5,-43573.455,-61451.954999999994,-62666.369999999995,-8998.92,-3169.2149999999997
-10041.345,-31785.254999999997,-20688.165,-43546.229999999996,-61433.325,-62648.505,-8990.46,-3168.27
-10033.785,-31755.329999999998,-20663.055,-43532.189999999995,-61430.85,-62638.829999999994,-8991.99,-3167.2349999999997
-10024.56,-31738.995,-20658.465,-43538.354999999996,-61439.13,-62636.354999999996,-8993.43,-3165.165
-10031.715,-31735.89,-20660.04,-43547.759999999995,-61446.015,-62633.61,-8999.145,-3174.075
-10029.06,-31741.02,-20655.63,-43542.27,-61439.759999999995,-62627.445,-8996.67,-3174.2999999999997
-10023.57,-31736.52,-20644.02,-43535.025,-61433.685,-62621.505,-8996.31,-3172.9049999999997
-10000.98,-31705.065,-20637.0,-43538.85,-61432.829999999994,-62614.619999999995,-8999.46,-3169.395
-9983.699999999999,-31681.844999999998,-20638.44,-43546.95,-61436.79,-62609.715,-9002.475,-3167.19
-9984.51,-31693.635,-20645.19,-43546.545,-61436.115,-62612.145,-8989.065,-3161.52
-9994.095,-31712.579999999998,-20647.079999999998,-43538.31,-61430.265,-62611.29,-8974.619999999999,-3157.74
-10000.845,-31714.695,-20640.329999999998,-43531.244999999995,-61425.494999999995,-62601.615,-8983.574999999999,-3164.9849999999997
-10005.39,-31718.699999999997,-20644.739999999998,-43539.57,-61432.424999999996,-62595.72,-8988.21,-3171.42
-10001.88,-31716.045,-20643.704999999998,-43536.96,-61425.314999999995,-62575.155,-8991.18,-3173.265
-10007.145,-31721.535,-20647.305,-43537.095,-61420.185,-62551.034999999996,-8996.039999999999,-3180.33
-10002.195,-31707.135,-20634.344999999998,-43530.119999999995,-61420.049999999996,-62544.645,-9005.22,-3186.225
-9995.039999999999,-31699.98,-20632.995,-43528.634999999995,-61420.59,-62545.229999999996,-9007.695,-3185.865
-10008.855,-31734.629999999997,-20662.155,-43545.509999999995,-61432.38,-62552.024999999994,-8997.164999999999,-3186.99
-10004.13,-31730.489999999998,-20652.255,-43545.689999999995,-61442.774999999994,-62564.13,-8988.93,-3180.7799999999997
-9992.205,-31697.28,-20616.39,-43525.619999999995,-61430.805,-62556.165,-8984.43,-3174.21
-9994.5,-31711.454999999998,-20636.82,-43534.71,-61426.979999999996,-62550.09,-8986.994999999999,-3176.2349999999997
-10000.08,-31734.629999999997,-20649.42,-43535.34,-61424.189999999995,-62547.21,-8982.449999999999,-3175.6949999999997
-9998.46,-31728.87,-20642.579999999998,-43530.03,-61421.805,-62539.515,-8989.289999999999,-3178.2149999999997
-9993.06,-31716.855,-20633.579999999998,-43523.729999999996,-61417.17,-62525.79,-8994.555,-3177.315
-9996.84,-31719.69,-20637.27,-43527.555,-61415.729999999996,-62502.615,-8999.73,-3182.13
-9994.32,-31717.125,-20636.055,-43524.405,-61407.99,-62485.92,-9001.529999999999,-3181.23
-9990.09,-31715.684999999998,-20633.175,-43522.65,-61410.015,-62489.25,-9003.015,-3177.45
-9982.08,-31706.46,-20629.844999999998,-43525.619999999995,-61418.475,-62497.71,-9003.69,-3175.515
-9973.215,-31704.48,-20640.78,-43540.74,-61433.729999999996,-62514.134999999995,-9008.145,-3172.95
-9979.109999999999,-31727.07,-20652.704999999998,-43537.005,-61422.795,-62508.555,-9000.404999999999,-3170.7
-9983.385,-31743.629999999997,-20657.565,-43533.09,-61414.064999999995,-62494.47,-8982.63,-3163.6349999999998
-9982.44,-31728.87,-20638.89,-43527.915,-61420.32,-62496.18,-8977.365,-3161.205
-9980.55,-31704.795,-20611.35,-43511.805,-61413.255,-62487.674999999996,-8985.24,-3164.265
-9978.615,-31704.524999999998,-20623.77,-43527.465,-61424.28,-62486.325,-8995.59,-3166.1549999999997
-9977.13,-31703.895,-20633.535,-43535.564999999995,-61429.545,-62485.695,-9003.15,-3169.305
-9955.98,-31682.43,-20615.67,-43511.22,-61401.6,-62462.43,-8995.859999999999,-3157.4249999999997
-9964.755,-31705.245,-20630.295,-43522.29,-61411.545,-62462.295,-8991.539999999999,-3155.7149999999997
-9976.859999999999,-31728.375,-20638.575,-43528.814999999995,-61416.765,-62463.78,-8986.32,-3157.02
-9964.17,-31719.105,-20621.295,-43515.765,-61410.195,-62461.89,-8977.41,-3146.9849999999997
-9957.69,-31712.715,-20613.239999999998,-43507.395,-61400.564999999995,-62458.965,-8981.64,-3143.52
-9961.875,-31715.145,-20621.565,-43515.945,-61408.215,-62469.27,-8991.675,-3147.5699999999997
-9954.0,-31703.085,-20617.829999999998,-43514.909999999996,-61412.399999999994,-62478.18,-8987.49,-3140.145
-9954.539999999999,-31702.545,-20623.454999999998,-43521.479999999996,-61418.25,-62478.314999999995,-8980.335,-3137.04
-9961.199999999999,-31713.48,-20632.77,-43526.564999999995,-61417.439999999995,-62459.505,-8986.005,-3140.685
-9961.199999999999,-31718.07,-20633.04,-43519.005,-61406.055,-62441.729999999996,-8987.984999999999,-3140.46
-9962.234999999999,-31718.745,-20631.51,-43516.665,-61405.56,-62441.505,-8989.335,-3139.83
-9956.97,-31712.895,-20624.805,-43514.28,-61405.784999999996,-62443.439999999995,-8985.96,-3134.6549999999997
-9948.914999999999,-31698.315,-20613.375,-43510.095,-61404.659999999996,-62448.21,-8987.039999999999,-3130.92
-9939.465,-31673.655,-20595.645,-43504.695,-61401.915,-62451.585,-8998.244999999999,-3132.495
-9934.695,-31671.809999999998,-20599.335,-43509.555,-61402.814999999995,-62455.994999999995,-8996.67,-3127.5
-9946.17,-31705.739999999998,-20633.399999999998,-43528.32,-61410.195,-62464.814999999995,-8991.494999999999,-3127.815
-9963.81,-31737.285,-20645.594999999998,-43521.255,-61399.079999999994,-62453.204999999994,-8973.539999999999,-3125.0699999999997
-9961.02,-31718.969999999998,-20629.89,-43512.03,-61396.244999999995,-62449.649999999994,-8980.289999999999,-3126.5099999999998
-9964.395,-31728.78,-20638.215,-43517.88,-61396.829999999994,-62444.07,-8982.09,-3126.555
-9955.17,-31726.89,-20626.425,-43517.43,-61402.365,-62444.43,-8976.869999999999,-3121.92
-9942.119999999999,-31714.155,-20608.739999999998,-43512.255,-61404.479999999996,-62445.284999999996,-8977.05,-3116.475
-9944.324999999999,-31712.715,-20615.805,-43513.604999999996,-61402.814999999995,-62441.774999999994,-8980.965,-3117.1949999999997
-9953.865,-31714.605,-20634.48,-43523.28,-61403.895,-62443.395,-8988.66,-3123.855
-9943.065,-31685.489999999998,-20611.98,-43504.38,-61386.615,-62436.555,-8986.68,-3120.795
-9938.88,-31686.39,-20616.704999999998,-43509.6,-61390.755,-62440.38,-8983.619999999999,-3116.88
-9933.75,-31683.059999999998,-20619.18,-43520.22,-61402.409999999996,-62454.555,-8989.965,-3115.395
-9926.324999999999,-31667.579999999998,-20604.69,-43510.455,-61394.985,-62454.195,-8995.77,-3114.81
-9928.44,-31674.96,-20614.545,-43513.02,-61391.43,-62446.32,-8996.445,-3114.855
-9934.65,-31689.045,-20624.985,-43517.205,-61394.67,-62439.479999999996,-8986.545,-3112.74
-9951.255,-31709.925,-20631.87,-43516.034999999996,-61390.53,-62427.735,-8982.045,-3117.7799999999997
-9951.48,-31703.129999999997,-20618.19,-43506.36,-61382.564999999995,-62415.99,-8976.734999999999,-3115.98
-9936.0,-31673.655,-20589.75,-43492.5,-61379.729999999996,-62418.015,-8978.175,-3111.525
