ch_0,ch_1,ch_2,ch_3,ch_4,ch_5,ch_6,ch_7
-17645.22,-47792.564999999995,284.895,5152.545,25013.16,-17877.51,-1477.44,-1246.635
-17754.434999999998,-48150.585,238.14,5303.385,25328.295,-17500.815,-1465.29,-1334.7
-17801.19,-48186.63,123.57,5320.08,25432.02,-17396.28,-1489.455,-1384.155
-18059.805,-48225.645,91.97999999999999,5375.25,25572.914999999997,-17196.614999999998,-1497.465,-1522.1699999999998
-18150.12,-48482.64,81.81,5389.605,25635.825,-17123.265,-1470.0149999999999,-1571.94
-17893.755,-48438.494999999995,106.155,5346.135,25609.32,-17123.985,-1455.12,-1490.58
-17674.11,-47952.945,300.375,5392.125,25561.62,-17250.84,-1513.44,-1416.69
-17547.165,-47498.085,387.27,5370.21,25487.684999999998,-17405.28,-1560.465,-1336.095
-17476.245,-47305.845,674.055,5451.165,25466.579999999998,-17505.0,-1652.895,-1330.02
-17533.305,-47332.125,1050.03,5676.705,25569.945,-17486.19,-1707.03,-1388.4299999999998
-17552.475,-47352.104999999996,1071.27,5711.58,25609.41,-17459.145,-1716.57,-1399.0049999999999
-17558.864999999998,-47514.555,859.4549999999999,5548.05,25500.329999999998,-17546.67,-1718.955,-1388.835
-17506.35,-47745.9,693.855,5403.285,25411.545,-17601.975,-1710.405,-1350.945
-17537.67,-47872.215,641.25,5364.09,25425.945,-17539.965,-1724.22,-1368.135
-17758.35,-47839.455,522.045,5375.61,25511.805,-17411.94,-1746.855,-1497.645
-18118.035,-48158.865,-135.315,5236.695,25613.594999999998,-17182.98,-1720.845,-1665.3149999999998
-18376.29,-49067.415,-707.4449999999999,4951.98,25598.16,-17053.695,-1594.62,-1733.6699999999998
-18167.13,-49084.335,-213.345,4996.889999999999,25630.02,-16992.315,-1543.725,-1703.4299999999998
-17839.844999999998,-48171.15,833.67,5653.9349999999995,26067.96,-16660.71,-1507.0049999999999,-1647.495
-17664.93,-47554.604999999996,1259.865,5884.695,26138.7,-16725.329999999998,-1557.99,-1565.0549999999998
-17420.805,-47119.814999999995,1602.225,5871.15,25885.305,-17181.765,-1671.57,-1400.2649999999999
-17012.204999999998,-46632.555,1793.205,5863.545,25723.71,-17532.405,-1814.31,-1220.31
-16853.715,-46547.325,1647.855,5728.905,25577.82,-17737.02,-1912.365,-1144.71
-17026.829999999998,-46839.015,1439.235,5481.63,25350.21,-17946.63,-1945.71,-1179.6299999999999
-17207.82,-47102.895,1297.08,5341.7699999999995,25256.475,-18008.684999999998,-1973.5649999999998,-1263.87
-17181.225,-47109.869999999995,1359.45,5515.245,25500.735,-17771.715,-1986.75,-1278.45
-17142.03,-47100.015,1405.08,5603.804999999999,25602.344999999998,-17701.065,-1990.8899999999999,-1268.19
-17169.48,-47153.52,1365.57,5562.45,25561.079999999998,-17740.26,-1965.105,-1287.54
-17316.045,-47368.89,1143.72,5345.235,25389.629999999997,-17809.92,-1883.745,-1333.845
-17601.165,-47829.195,735.2099999999999,5063.445,25236.0,-17765.91,-1688.76,-1416.24
-17825.04,-48294.99,492.12,5040.72,25412.129999999997,-17454.42,-1578.51,-1487.925
-17949.42,-48635.055,390.555,5079.105,25583.399999999998,-17206.155,-1633.23,-1557.1799999999998
-17895.915,-48538.755,266.58,5051.429999999999,25566.03,-17275.23,-1695.24,-1570.725
-17639.055,-47744.145,788.0849999999999,5211.45,25556.985,-17425.934999999998,-1783.53,-1521.855
-17443.305,-47254.634999999995,1182.2849999999999,5348.835,25597.305,-17461.079999999998,-1804.455,-1467.72
-17425.845,-47316.33,1276.47,5392.665,25591.454999999998,-17553.51,-1853.865,-1456.965
-17507.07,-47649.96,1161.36,5327.325,25523.73,-17644.364999999998,-1895.76,-1471.815
-17560.305,-47831.265,977.9399999999999,5241.735,25473.329999999998,-17672.535,-1959.03,-1497.78
-17601.48,-47892.555,848.2049999999999,5163.885,25461.18,-17671.815,-2009.97,-1522.485
-17596.665,-47852.729999999996,913.365,5126.4,25405.649999999998,-17752.815,-2054.43,-1531.44
-17495.864999999998,-47619.36,1119.69,5166.63,25337.385,-17886.87,-2050.965,-1503.1799999999998
-17448.165,-47437.784999999996,1220.5349999999999,5160.105,25263.945,-17958.105,-2006.1,-1466.82
-17562.87,-47450.384999999995,1247.1299999999999,5191.155,25299.629999999997,-17889.614999999998,-1958.9399999999998,-1505.745
-17769.825,-47681.369999999995,1254.51,5308.875,25488.765,-17637.57,-1924.47,-1580.58
-17820.989999999998,-47996.82,1087.6499999999999,5278.275,25554.195,-17537.355,-1927.125,-1585.44
-17668.26,-47999.97,880.605,5136.21,25455.465,-17646.93,-1939.23,-1548.405
-17578.845,-47777.174999999996,791.865,5047.47,25386.434999999998,-17735.399999999998,-1942.605,-1544.04
-17602.155,-47799.27,563.985,4927.545,25307.82,-17797.68,-1918.62,-1542.24
-17632.665,-47929.095,568.17,4970.385,25389.09,-17696.34,-1966.5449999999998,-1554.3899999999999
-17659.665,-47880.27,903.015,5164.065,25579.664999999997,-17533.215,-2094.48,-1614.195
-17659.845,-47720.924999999996,1356.3,5388.48,25664.895,-17559.09,-2147.535,-1623.33
-17647.065,-47897.595,1320.75,5425.425,25653.69,-17580.059999999998,-2140.74,-1569.645
-17558.505,-48052.485,1035.315,5165.28,25405.02,-17731.98,-2077.56,-1499.31
-17490.195,-47998.259999999995,949.05,4917.105,25127.28,-17901.54,-1906.965,-1448.415
-17472.465,-47760.57,1088.1,4966.875,25158.78,-17891.774999999998,-1826.145,-1467.99
-17619.84,-47730.915,1201.635,5073.48,25322.489999999998,-17716.454999999998,-1882.4399999999998,-1579.59
-17763.75,-48121.515,1013.0849999999999,5067.045,25451.235,-17531.595,-1865.205,-1611.0
-17861.13,-48422.924999999996,778.3199999999999,5024.429999999999,25470.495,-17543.34,-1817.325,-1615.5449999999998
-17775.945,-48298.095,871.65,5070.0599999999995,25515.27,-17562.329999999998,-1835.0549999999998,-1584.495
-17602.335,-47600.28,1328.2649999999999,5269.095,25616.204999999998,-17540.774999999998,-1904.49,-1570.23
-17655.03,-47522.34,1505.385,5461.695,25793.46,-17422.829999999998,-1920.8249999999998,-1594.08
-17906.805,-48126.555,1246.77,5302.71,25687.934999999998,-17493.165,-1885.455,-1619.865
-17966.61,-48622.32,1117.305,5235.705,25626.645,-17546.805,-1886.625,-1626.5249999999999
-17692.605,-48436.155,1185.2549999999999,5299.11,25661.745,-17535.555,-1923.7949999999998,-1562.625
-17421.345,-47506.409999999996,1383.075,5307.03,25630.605,-17599.59,-1979.865,-1516.455
-17369.864999999998,-47170.845,1412.28,5189.22,25464.329999999998,-17786.25,-2011.0049999999999,-1511.865
-17495.19,-47428.92,1354.635,5149.3949999999995,25425.945,-17818.469999999998,-2021.49,-1552.5449999999998
-17590.23,-47696.895,1185.12,5085.135,25449.434999999998,-17723.655,-2018.07,-1590.9299999999998
-17598.465,-47765.295,1182.375,5102.1449999999995,25519.635,-17603.37,-2035.26,-1626.435
-17617.364999999998,-47826.18,1321.02,5355.99,25825.95,-17267.309999999998,-1928.205,-1625.49
-17605.53,-47884.905,1432.3049999999998,5510.835,25993.71,-17117.595,-1779.3,-1519.74
-17560.395,-47867.445,1285.83,5275.26,25733.25,-17419.905,-1861.02,-1456.02
-17665.38,-47833.56,1107.405,4968.72,25377.57,-17798.805,-2043.7649999999999,-1565.46
-17918.684999999998,-47962.53,1071.405,4960.035,25369.92,-17814.375,-2105.19,-1733.6699999999998
-18126.0,-48560.4,624.3299999999999,4982.804999999999,25537.86,-17625.239999999998,-2082.555,-1835.1899999999998
-18205.92,-49169.97,203.535,4813.245,25487.594999999998,-17627.265,-2046.6,-1817.82
-17965.665,-48956.265,357.255,4672.845,25319.43,-17816.265,-2014.425,-1660.1399999999999
-17342.19,-47684.61,1077.93,4749.75,25127.325,-18150.344999999998,-2121.12,-1472.085
-17263.44,-47220.165,1658.4299999999998,5059.44,25246.26,-18146.295,-2199.87,-1485.09
-17442.945,-47431.71,1777.095,5197.905,25349.895,-18091.17,-2223.6749999999997,-1561.1399999999999
-17558.73,-47558.07,1676.5649999999998,5172.525,25380.18,-18033.075,-2194.065,-1591.965
-17574.614999999998,-47615.13,1467.36,5107.7699999999995,25400.16,-17991.765,-2176.2,-1592.82
-17558.73,-47750.445,1263.1499999999999,5019.48,25374.645,-17979.255,-2165.895,-1595.34
-17584.2,-47826.045,1214.37,4973.3099999999995,25361.64,-17924.04,-2200.41,-1619.595
-17563.905,-47805.39,1353.4199999999998,5065.245,25437.059999999998,-17867.925,-2230.065,-1608.975
-17585.91,-47838.06,1361.25,5059.26,25413.12,-17913.105,-2240.055,-1614.78
-17667.225,-47948.985,1249.47,4985.46,25348.32,-17970.57,-2195.865,-1636.11
-17786.07,-48101.985,1097.7749999999999,4863.285,25276.86,-17995.95,-2072.745,-1664.145
-17996.175,-48286.395,980.415,4809.51,25353.585,-17778.915,-2000.5649999999998,-1779.03
-18167.67,-48305.655,1026.405,4851.405,25461.585,-17611.739999999998,-2028.465,-1898.3249999999998
-18207.27,-48310.56,1114.7849999999999,4954.995,25572.78,-17514.135,-2030.8049999999998,-1904.85
-18071.1,-48446.189999999995,1019.385,5005.485,25613.954999999998,-17552.655,-2020.8149999999998,-1779.975
-17801.145,-48437.549999999996,948.285,4936.905,25516.934999999998,-17726.85,-2051.865,-1634.1299999999999
-17625.78,-48203.82,1066.0049999999999,4926.195,25454.43,-17821.215,-2139.795,-1608.435
-17587.53,-47971.755,1267.965,4965.84,25394.805,-17942.489999999998,-2227.68,-1616.5349999999999
-17591.579999999998,-47887.56,1289.43,4964.445,25346.655,-18040.14,-2242.665,-1607.58
-17547.614999999998,-47825.369999999995,1364.355,5010.12,25364.655,-18060.66,-2238.345,-1581.615
-17518.815,-47804.58,1315.8,4970.115,25344.045,-18043.92,-2204.955,-1567.1699999999998
-17575.92,-47788.515,1323.54,4984.965,25365.329999999998,-17962.29,-2243.6549999999997,-1619.595
-17619.21,-47794.095,1417.32,5104.349999999999,25483.364999999998,-17839.44,-2304.045,-1658.115
-17601.3,-47789.055,1391.895,5118.705,25515.45,-17806.5,-2317.005,-1648.35
-17561.114999999998,-47875.229999999996,1220.895,5014.53,25483.86,-17840.295,-2232.495,-1577.1599999999999
-17692.605,-48252.6,871.8299999999999,4770.2699999999995,25321.32,-17979.39,-2066.535,-1579.995
-17812.079999999998,-48468.645,713.745,4667.04,25262.684999999998,-17974.665,-1991.52,-1649.115
-17923.815,-48366.945,1001.16,4879.08,25469.325,-17696.204999999998,-2066.85,-1784.5649999999998
-18013.77,-48203.955,1255.635,5142.78,25743.6,-17445.195,-2112.21,-1868.31
-18127.485,-48394.799999999996,1150.2,5234.8949999999995,25890.57,-17316.315,-2079.54,-1879.425
-18041.13,-48405.735,1148.22,5213.385,25831.575,-17442.585,-2012.6699999999998,-1750.59
-17695.395,-47944.215,1349.28,5132.07,25608.149999999998,-17768.969999999998,-2015.6399999999999,-1559.4299999999998
-17400.375,-47553.03,1433.205,4964.3099999999995,25347.555,-18007.02,-2145.87,-1503.315
-17521.065,-47675.159999999996,1427.985,4873.7699999999995,25215.254999999997,-18150.57,-2315.3399999999997,-1617.6599999999999
-17701.02,-47926.439999999995,1367.46,4847.355,25211.52,-18162.27,-2347.245,-1687.5449999999998
-17657.415,-47980.215,1403.46,4865.13,25188.57,-18208.35,-2333.205,-1659.33
-17639.055,-47898.36,1507.455,4988.025,25266.285,-18156.42,-2328.8849999999998,-1667.115
-17631.765,-47835.945,1470.465,4965.4349999999995,25241.219999999998,-18166.545,-2296.62,-1653.165
-17732.925,-47996.055,1304.235,4851.135,25176.105,-18139.815,-2208.1949999999997,-1670.8049999999998
-17942.13,-48296.159999999996,1070.5049999999999,4812.345,25273.754999999997,-17958.149999999998,-2140.065,-1745.46
-18228.555,-48841.064999999995,659.025,4715.46,25387.245,-17701.38,-2081.565,-1870.9199999999998
-18229.094999999998,-49140.945,176.48999999999998,4615.245,25502.535,-17474.13,-1929.105,-1831.6799999999998
-18019.8,-48990.915,188.54999999999998,4583.745,25490.79,-17528.535,-1883.925,-1697.445
-17726.175,-48349.08,760.4549999999999,4730.715,25425.945,-17759.655,-2023.9199999999998,-1588.23
-17767.844999999998,-47998.935,1475.325,5032.44,25413.57,-17969.489999999998,-2195.8199999999997,-1655.37
-17817.84,-48065.715,1749.06,5142.465,25381.71,-18069.57,-2280.555,-1702.395
-17687.43,-47844.09,1835.6399999999999,5123.5199999999995,25310.79,-18148.32,-2334.7799999999997,-1698.03
-17576.91,-47664.405,1773.225,5110.155,25322.85,-18128.295,-2363.1749999999997,-1673.1
-17571.915,-47537.189999999995,1748.4299999999998,5131.304999999999,25379.145,-18062.91,-2380.68,-1664.865
-17533.44,-47529.494999999995,1751.58,5151.285,25393.05,-18041.219999999998,-2406.105,-1636.74
-17526.555,-47623.409999999996,1639.935,5061.6449999999995,25277.355,-18128.835,-2398.185,-1630.845
-17572.184999999998,-47775.42,1438.695,4938.03,25171.605,-18207.899999999998,-2421.6749999999997,-1647.72
-17592.12,-47857.994999999995,1316.1599999999999,4860.63,25124.085,-18246.555,-2379.015,-1629.855
-17627.85,-47927.07,1243.215,4786.92,25103.7,-18213.255,-2273.805,-1617.885
-17629.38,-47922.345,1261.215,4783.95,25160.85,-18167.04,-2164.59,-1590.7949999999998
-17827.649999999998,-48181.14,1223.595,4807.349999999999,25249.995,-18050.219999999998,-2064.5099999999998,-1662.84
-18030.78,-48386.07,1241.5049999999999,4907.115,25409.745,-17802.18,-2110.545,-1785.105
-18105.12,-48520.305,1132.83,4886.595,25455.285,-17670.6,-2094.48,-1814.76
-18040.59,-48530.835,1008.855,4811.13,25389.09,-17741.475,-2096.955,-1790.145
-17901.765,-48378.284999999996,986.2199999999999,4816.575,25378.02,-17789.67,-2116.7999999999997,-1727.28
-17852.445,-48326.265,910.0799999999999,4815.63,25381.125,-17833.905,-2120.355,-1685.07
-17855.505,-48420.585,966.1949999999999,4822.155,25387.695,-17854.02,-2150.19,-1681.02
-17850.51,-48539.52,1003.0949999999999,4769.415,25326.27,-17894.565,-2189.0699999999997,-1686.87
-17767.71,-48300.03,1232.46,4865.22,25335.629999999997,-17926.605,-2212.29,-1666.08
-17734.23,-48057.884999999995,1329.7949999999998,4906.71,25321.41,-17989.155,-2209.0499999999997,-1653.705
-17703.135,-47962.71,1367.325,4916.205,25288.785,-18047.745,-2232.585,-1661.2649999999999
-17777.07,-48102.479999999996,1310.985,4911.84,25311.825,-17998.695,-2234.16,-1712.655
-17870.67,-48164.939999999995,1375.155,4986.135,25408.844999999998,-17858.969999999998,-2235.105,-1792.665
-17945.055,-48155.805,1392.885,5026.635,25500.6,-17702.19,-2247.8399999999997,-1869.0749999999998
-17983.44,-48279.825,1199.8799999999999,4942.665,25479.045,-17686.845,-2212.335,-1851.03
-17844.57,-48194.46,1244.8799999999999,4916.295,25417.44,-17821.89,-2201.4449999999997,-1712.385
-17702.684999999998,-48128.985,1388.205,4949.6849999999995,25389.585,-17934.03,-2253.96,-1623.1499999999999
-17731.71,-48110.354999999996,1406.61,4861.53,25251.075,-18102.42,-2333.43,-1659.6899999999998
