ch_0,ch_1,ch_2,ch_3,ch_4,ch_5,ch_6,ch_7
7345.17,-82.53,11178.81,-1209.915,-129266.14499999999,-16403.085,15707.115,-61003.17
7351.74,-78.11999999999999,11179.035,-1215.8999999999999,-129283.01999999999,-16422.3,15711.705,-60998.265
7350.48,-81.675,11177.82,-1215.855,-129289.95,-16412.22,15713.46,-61001.055
7341.075,-88.64999999999999,11177.145,-1205.865,-129279.465,-16392.149999999998,15705.09,-61012.395
7334.325,-92.07,11179.845,-1184.985,-129248.64,-16345.664999999999,15706.035,-61019.774999999994
7326.405,-99.45,11175.705,-1176.93,-129226.545,-16295.4,15706.439999999999,-61028.729999999996
7326.585,-97.065,11176.695,-1175.805,-129220.42499999999,-16287.615,15704.91,-61031.295
7333.695,-93.465,11181.734999999999,-1173.465,-129217.455,-16292.474999999999,15708.465,-61027.335
7331.94,-98.41499999999999,11178.045,-1175.985,-129219.885,-16301.789999999999,15703.83,-61032.96
7334.46,-96.11999999999999,11178.045,-1177.02,-129225.555,-16313.31,15706.17,-61030.71
7346.295,-88.785,11178.404999999999,-1183.23,-129246.165,-16340.445,15715.17,-61020.314999999995
7349.804999999999,-87.11999999999999,11175.21,-1192.365,-129266.955,-16366.994999999999,15715.125,-61018.695
7350.075,-87.47999999999999,11171.025,-1198.53,-129272.84999999999,-16376.49,15714.494999999999,-61020.674999999996
7343.6849999999995,-97.92,11160.045,-1207.665,-129277.26,-16381.98,15707.744999999999,-61028.729999999996
7341.4349999999995,-103.815,11155.77,-1202.6699999999998,-129262.68,-16363.215,15707.699999999999,-61033.365
7340.58,-101.295,11167.154999999999,-1179.18,-129221.64,-16333.875,15706.619999999999,-61038.0
7333.514999999999,-104.265,11168.145,-1173.105,-129194.19,-16332.795,15698.385,-61046.505
7335.585,-100.89,11169.314999999999,-1173.2849999999999,-129180.06,-16335.135,15697.619999999999,-61045.2
7330.41,-107.685,11162.744999999999,-1179.8999999999999,-129177.18,-16339.455,15694.244999999999,-61049.97
7333.605,-105.615,11164.32,-1178.055,-129170.92499999999,-16337.88,15695.955,-61048.89
7337.384999999999,-103.545,11165.355,-1174.365,-129163.995,-16333.289999999999,15694.47,-61050.284999999996
7340.804999999999,-103.545,11165.535,-1172.34,-129156.525,-16329.375,15698.519999999999,-61048.485
7343.594999999999,-106.24499999999999,11161.98,-1175.445,-129159.26999999999,-16340.805,15705.63,-61047.945
7334.955,-113.80499999999999,11154.645,-1179.99,-129158.86499999999,-16348.455,15697.619999999999,-61061.13
7336.259999999999,-113.535,11151.539999999999,-1182.555,-129160.17,-16352.865,15696.945,-61061.399999999994
7344.0,-109.935,11149.83,-1189.8899999999999,-129173.04,-16370.055,15701.175,-61054.064999999995
7342.5599999999995,-111.825,11146.095,-1196.595,-129181.36499999999,-16379.234999999999,15698.385,-61057.395
7337.025,-117.945,11138.085,-1205.28,-129192.25499999999,-16386.57,15691.14,-61065.585
7338.105,-118.08,11141.82,-1195.2,-129178.89,-16363.619999999999,15692.13,-61068.015
7340.8949999999995,-113.13,11152.71,-1176.3899999999999,-129155.94,-16339.904999999999,15691.455,-61071.03
7339.679999999999,-112.58999999999999,11155.32,-1166.175,-129143.295,-16335.359999999999,15688.349999999999,-61077.78
7341.03,-112.05,11159.145,-1156.095,-129126.28499999999,-16322.31,15692.58,-61079.354999999996
7343.099999999999,-114.83999999999999,11156.039999999999,-1160.19,-129129.39,-16323.84,15697.215,-61079.445
7338.105,-121.77,11147.13,-1169.73,-129141.09,-16337.564999999999,15692.58,-61085.655
7337.295,-124.60499999999999,11144.25,-1172.475,-129144.28499999999,-16342.65,15694.019999999999,-61087.86
7337.115,-126.99,11142.945,-1174.0049999999999,-129143.295,-16343.55,15697.394999999999,-61089.21
7338.42,-127.845,11142.585,-1174.815,-129141.98999999999,-16343.55,15704.369999999999,-61086.735
7329.285,-137.565,11133.404999999999,-1181.97,-129148.92,-16348.545,15706.935,-61094.07
7322.04,-143.1,11128.994999999999,-1185.84,-129155.48999999999,-16356.15,15702.3,-61103.43
7338.96,-129.465,11139.705,-1177.02,-129153.105,-16359.21,15697.8,-61098.075
7346.969999999999,-125.955,11141.685,-1173.465,-129148.92,-16360.965,15698.16,-61097.579999999994
7345.349999999999,-132.84,11135.16,-1176.885,-129149.19,-16357.904999999999,15700.545,-61102.215
7348.995,-131.94,11137.23,-1172.43,-129140.955,-16350.48,15707.07,-61100.685
7343.505,-136.665,11130.705,-1176.48,-129143.61,-16361.64,15702.119999999999,-61107.479999999996
7345.035,-133.605,11131.38,-1174.4099999999999,-129141.72,-16372.574999999999,15701.039999999999,-61107.435
7345.259999999999,-132.84,11133.359999999999,-1171.53,-129138.525,-16381.439999999999,15701.939999999999,-61106.715
7336.08,-143.86499999999998,11121.345,-1183.68,-129149.37,-16391.07,15699.06,-61114.814999999995
7333.0199999999995,-149.805,11113.74,-1192.365,-129163.455,-16395.57,15700.994999999999,-61118.82
7335.36,-148.905,11115.359999999999,-1190.655,-129172.905,-16382.88,15702.119999999999,-61120.755
7339.23,-146.565,11119.68,-1181.475,-129161.43,-16356.555,15701.76,-61122.104999999996
7339.5,-150.93,11110.545,-1189.1699999999998,-129168.855,-16368.3,15696.945,-61126.56
7341.66,-150.435,11108.205,-1190.34,-129165.93,-16371.404999999999,15697.619999999999,-61127.369999999995
7344.134999999999,-147.105,11116.305,-1174.095,-129130.29,-16348.5,15706.71,-61125.075
7337.61,-156.915,11107.484999999999,-1179.72,-129117.555,-16351.83,15707.385,-61130.43
7333.605,-164.565,11098.529999999999,-1189.305,-129122.28,-16368.795,15704.595,-61135.424999999996
7338.375,-163.17,11097.585,-1193.04,-129130.78499999999,-16379.865,15706.26,-61132.274999999994
7335.09,-170.37,11088.585,-1197.405,-129135.33,-16365.555,15700.769999999999,-61139.61
7335.2699999999995,-166.905,11101.859999999999,-1168.695,-129134.97,-16326.765,15701.939999999999,-61143.39
7337.655,-159.29999999999998,11116.574999999999,-1145.2949999999998,-129142.305,-16298.01,15705.09,-61144.38
7339.23,-164.34,11108.52,-1156.32,-129155.12999999999,-16320.644999999999,15704.234999999999,-61145.189999999995
7340.445,-168.39,11103.93,-1161.945,-129118.59,-16343.099999999999,15702.93,-61146.09
7341.075,-170.595,11102.175,-1163.205,-129094.965,-16351.695,15704.144999999999,-61147.89
7345.665,-171.765,11100.51,-1163.7,-129107.655,-16351.56,15710.894999999999,-61144.649999999994
7346.07,-178.38,11092.095,-1172.115,-129114.765,-16360.785,15715.17,-61144.649999999994
7346.429999999999,-185.22,11078.505,-1192.185,-129138.93,-16384.454999999998,15717.105,-61143.57
7344.134999999999,-191.385,11070.494999999999,-1204.335,-129157.965,-16408.575,15716.16,-61146.045
7335.855,-198.54,11065.635,-1209.33,-129163.36499999999,-16416.045,15711.345,-61155.494999999995
7325.054999999999,-207.54,11060.955,-1207.665,-129154.095,-16402.545,15703.47,-61167.42
7326.134999999999,-204.29999999999998,11072.205,-1183.095,-129119.58,-16373.744999999999,15696.135,-61172.415
7327.125,-202.545,11077.875,-1166.175,-129092.985,-16343.234999999999,15693.074999999999,-61176.104999999996
7323.705,-206.14499999999998,11077.875,-1156.725,-129072.825,-16316.144999999999,15686.955,-61185.195
7335.9,-198.63,11085.885,-1141.3799999999999,-129049.605,-16300.08,15696.945,-61177.634999999995
7350.4349999999995,-187.92,11095.425,-1131.12,-129036.87,-16294.185,15710.445,-61164.27
7353.675,-188.775,11091.15,-1136.07,-129043.215,-16302.555,15706.484999999999,-61163.055
7356.105,-191.655,11086.335,-1137.645,-129042.67499999999,-16302.599999999999,15712.335,-61161.704999999994
7347.554999999999,-203.04,11074.05,-1147.4099999999999,-129048.93,-16310.654999999999,15709.095,-61172.774999999994
7343.6849999999995,-209.88,11066.67,-1152.27,-129051.62999999999,-16316.82,15709.545,-61177.365
7341.21,-215.775,11060.234999999999,-1156.815,-129053.61,-16322.265,15710.039999999999,-61180.47
7338.78,-221.22,11053.305,-1161.99,-129057.12,-16329.33,15710.039999999999,-61183.439999999995
7345.71,-217.665,11054.925,-1159.47,-129052.26,-16333.74,15712.064999999999,-61180.695
7351.0199999999995,-217.98,11052.539999999999,-1162.53,-129055.635,-16344.269999999999,15709.994999999999,-61180.965
7345.17,-226.79999999999998,11040.75,-1173.69,-129066.03,-16356.24,15706.845,-61188.479999999996
7349.49,-224.19,11044.17,-1167.165,-129056.67,-16349.76,15714.72,-61186.005
7347.915,-228.285,11038.185,-1170.09,-129057.705,-16354.845,15710.76,-61191.134999999995
7341.255,-234.945,11033.279999999999,-1168.47,-129052.26,-16349.715,15704.46,-61198.875
7336.665,-239.715,11029.68,-1166.1299999999999,-129044.205,-16332.164999999999,15704.46,-61203.104999999996
7336.259999999999,-245.295,11021.939999999999,-1169.595,-129043.215,-16332.615,15707.295,-61205.579999999994
7339.905,-244.07999999999998,11023.56,-1164.06,-129033.67499999999,-16335.09,15706.71,-61206.615
7347.195,-239.31,11027.744999999999,-1157.22,-129025.17,-16328.654999999999,15708.599999999999,-61202.88
7340.535,-249.39,11018.385,-1162.53,-129022.155,-16310.115,15704.055,-61210.979999999996
7342.245,-251.37,11018.34,-1157.85,-129009.23999999999,-16290.045,15708.195,-61211.88
7344.179999999999,-254.92499999999998,11015.324999999999,-1157.355,-129008.565,-16287.66,15710.22,-61213.32
7345.485,-256.95,11013.795,-1155.555,-129004.73999999999,-16286.4,15713.64,-61213.454999999994
7342.83,-261.765,11007.81,-1158.57,-129006.62999999999,-16296.48,15709.545,-61219.485
7338.285,-267.93,11000.16,-1165.32,-129012.705,-16307.055,15706.935,-61224.615
7337.205,-271.215,10997.189999999999,-1166.1299999999999,-129012.03,-16309.98,15709.23,-61225.2
7338.105,-272.78999999999996,10994.76,-1168.5149999999999,-129015.98999999999,-16318.394999999999,15710.445,-61225.604999999996
7338.105,-276.03,10990.08,-1171.575,-129018.69,-16323.074999999999,15712.605,-61225.515
7331.445,-287.145,10977.345,-1181.745,-129025.75499999999,-16331.67,15709.68,-61231.95
7330.275,-293.03999999999996,10971.63,-1183.0049999999999,-129023.81999999999,-16335.09,15710.535,-61233.975
7335.495,-290.61,10976.22,-1171.8899999999999,-129010.14,-16331.76,15714.81,-61231.454999999994
7334.82,-294.795,10971.945,-1170.54,-129006.26999999999,-16333.154999999999,15711.885,-61236.045
7348.1849999999995,-286.965,10978.335,-1160.19,-128996.955,-16335.359999999999,15717.42,-61228.845
7348.545,-291.555,10969.785,-1167.84,-129010.455,-16375.859999999999,15710.939999999999,-61234.515
7348.32,-298.53,10959.164999999999,-1180.395,-129028.095,-16404.84,15713.505,-61237.17
7346.88,-307.305,10946.43,-1196.865,-129046.31999999999,-16418.295,15717.465,-61236.63
7347.87,-310.995,10941.255,-1204.02,-129054.015,-16412.13,15719.849999999999,-61236.72
7343.099999999999,-319.05,10937.654999999999,-1198.305,-129039.705,-16381.305,15717.555,-61242.119999999995
7345.17,-321.21,10940.939999999999,-1183.95,-129019.86,-16350.345,15718.904999999999,-61242.345
7350.165,-322.60499999999996,10941.255,-1173.51,-129005.64,-16324.244999999999,15722.234999999999,-61240.68
7345.889999999999,-327.735,10940.4,-1165.2749999999999,-128991.42,-16303.32,15715.08,-61249.32
7341.12,-328.365,10946.52,-1150.965,-128969.81999999999,-16284.15,15713.595,-61256.024999999994
7337.745,-334.89,10941.93,-1153.62,-128971.845,-16285.185,15718.32,-61259.085
7328.34,-348.03,10929.285,-1163.115,-128979.045,-16289.144999999999,15709.59,-61270.695
7330.86,-349.74,10927.845,-1162.485,-128980.53,-16297.199999999999,15709.859999999999,-61270.74
7332.12,-353.25,10923.21,-1163.475,-128981.15999999999,-16303.005,15710.22,-61271.774999999994
7343.775,-347.66999999999996,10927.98,-1156.23,-128973.825,-16300.17,15711.705,-61264.259999999995
7350.66,-347.715,10926.945,-1157.04,-128975.67,-16305.164999999999,15711.615,-61260.165
7355.835,-349.2,10927.215,-1155.195,-128974.36499999999,-16309.845,15718.05,-61257.96
7348.995,-361.97999999999996,10920.645,-1158.03,-128975.265,-16316.91,15714.72,-61267.814999999995
7350.929999999999,-363.41999999999996,10927.395,-1143.81,-128955.15,-16306.695,15717.869999999999,-61271.46
7350.12,-367.065,10923.57,-1145.34,-128954.83499999999,-16309.98,15716.16,-61277.67
7355.7,-366.93,10922.31,-1145.115,-128952.405,-16304.355,15723.945,-61275.96
7351.83,-375.39,10916.46,-1147.1399999999999,-128949.39,-16305.164999999999,15719.984999999999,-61283.744999999995
7349.58,-383.265,10909.71,-1151.73,-128943.98999999999,-16310.97,15718.095,-61287.39
7342.2,-394.695,10902.96,-1156.0049999999999,-128938.815,-16317.539999999999,15715.98,-61293.284999999996
7336.71,-402.84,10900.89,-1158.57,-128927.745,-16321.68,15719.894999999999,-61294.095
7327.259999999999,-413.955,10893.24,-1161.945,-128926.08,-16315.605,15714.945,-61303.409999999996
7338.285,-407.78999999999996,10897.785,-1155.87,-128961.26999999999,-16306.38,15715.035,-61301.924999999996
7346.565,-401.13,10905.029999999999,-1147.59,-128989.39499999999,-16304.085,15717.105,-61299.674999999996
7344.945,-406.395,10902.105,-1149.57,-128982.64499999999,-16308.18,15708.195,-61307.729999999996
7346.25,-410.265,10900.035,-1149.705,-128929.86,-16309.305,15704.099999999999,-61311.42
7355.07,-406.125,10906.92,-1142.37,-128913.525,-16304.265,15712.019999999999,-61305.345
7351.425,-413.55,10900.305,-1148.5349999999999,-128929.31999999999,-16312.545,15710.58,-61311.465
7345.125,-421.515,10892.654999999999,-1155.195,-128935.575,-16320.465,15708.869999999999,-61317.945
7341.884999999999,-426.375,10888.154999999999,-1158.435,-128937.23999999999,-16322.939999999999,15710.894999999999,-61319.97
7340.58,-428.35499999999996,10886.535,-1158.345,-128934.765,-16322.265,15710.625,-61322.399999999994
7343.594999999999,-426.375,10889.324999999999,-1153.845,-128928.87,-16317.224999999999,15713.369999999999,-61321.005
7339.634999999999,-432.04499999999996,10884.824999999999,-1156.0049999999999,-128931.12,-16321.365,15713.595,-61325.055
7335.0,-438.47999999999996,10881.585,-1156.23,-128930.48999999999,-16322.715,15706.89,-61333.335
7333.92,-440.41499999999996,10880.865,-1154.43,-128926.39499999999,-16315.38,15705.81,-61337.115
7339.5,-438.79499999999996,10884.375,-1148.58,-128921.355,-16310.925,15708.869999999999,-61335.27
7349.264999999999,-433.53,10890.72,-1141.74,-128917.62,-16313.715,15717.644999999999,-61327.395
7343.46,-442.125,10882.26,-1148.58,-128926.665,-16332.345,15713.505,-61334.055
7335.585,-453.195,10873.8,-1156.0049999999999,-128934.765,-16353.269999999999,15706.26,-61344.99
7335.045,-455.175,10876.005,-1152.36,-128931.345,-16358.355,15704.01,-61347.645
7338.69,-454.05,10879.38,-1147.815,-128926.08,-16348.275,15705.945,-61344.945
7333.11,-461.205,10870.154999999999,-1155.87,-128932.155,-16340.715,15700.14,-61352.055
7331.3099999999995,-463.59,10868.355,-1156.185,-128928.15,-16322.939999999999,15697.619999999999,-61355.52
7331.804999999999,-467.82,10867.005,-1156.455,-128924.81999999999,-16305.345,15699.195,-61356.195
