ch_0,ch_1,ch_2,ch_3,ch_4,ch_5,ch_6,ch_7
-12760.154999999999,-32155.11,-21185.19,-43459.515,-60983.954999999994,-62856.854999999996,-9017.865,-4045.365
-12764.115,-32162.309999999998,-21166.785,-43449.479999999996,-60989.22,-62870.939999999995,-9032.445,-4053.4649999999997
-12787.965,-32221.664999999997,-21196.89,-43469.865,-61011.854999999996,-62889.84,-9049.815,-4068.585
-12816.0,-32276.52,-21214.079999999998,-43487.235,-61030.845,-62908.064999999995,-9069.75,-4083.75
-12851.955,-32331.87,-21237.39,-43514.009999999995,-61067.924999999996,-62935.064999999995,-9088.92,-4098.6449999999995
-12908.564999999999,-32409.36,-21278.565,-43565.985,-61133.534999999996,-62975.79,-9107.055,-4124.07
-12984.84,-32505.75,-21320.055,-43619.04,-61197.57,-63015.075,-9126.09,-4167.045
-13012.154999999999,-32549.895,-21337.2,-43617.015,-61192.665,-63022.229999999996,-9146.744999999999,-4190.175
-12985.92,-32517.315,-21277.98,-43545.104999999996,-61098.93,-62970.255,-9135.045,-4183.47
-13013.91,-32512.094999999998,-21258.045,-43530.119999999995,-61075.71,-62963.009999999995,-9117.494999999999,-4176.54
-13044.779999999999,-32512.004999999997,-21285.18,-43559.28,-61126.74,-63014.31,-9089.955,-4168.62
-13042.845,-32517.675,-21332.655,-43597.71,-61154.954999999994,-63036.36,-9082.574999999999,-4170.78
-13005.045,-32486.805,-21327.12,-43573.14,-61092.945,-63004.59,-9098.595,-4164.075
-12991.859999999999,-32415.12,-21258.675,-43489.979999999996,-61011.27,-62985.015,-9106.92,-4161.78
-13002.164999999999,-32382.36,-21237.614999999998,-43495.38,-61059.24,-63025.604999999996,-9092.295,-4161.915
-13033.26,-32411.114999999998,-21255.75,-43548.03,-61117.829999999994,-63064.395,-9116.865,-4161.42
-13045.994999999999,-32400.539999999997,-21277.035,-43537.59,-61067.07,-63046.17,-9116.685,-4149.72
-12999.555,-32263.335,-21209.895,-43455.689999999995,-60959.43,-62990.774999999994,-9070.02,-4124.205
-12997.305,-32181.48,-21096.27,-43343.82,-60875.595,-62952.165,-9043.83,-4122.54
-13029.164999999999,-32212.754999999997,-21098.16,-43344.854999999996,-60896.384999999995,-62972.595,-9045.9,-4134.555
-13064.67,-32263.335,-21148.875,-43419.33,-60983.685,-63037.935,-9064.484999999999,-4152.375
-13133.25,-32343.66,-21202.38,-43500.24,-61087.814999999995,-63115.2,-9091.845,-4189.545
-13188.06,-32395.815,-21225.87,-43556.4,-61154.055,-63153.99,-9110.385,-4226.985
-13211.234999999999,-32420.385,-21215.475,-43562.205,-61147.71,-63158.22,-9138.195,-4253.8949999999995
-13215.689999999999,-32433.704999999998,-21246.84,-43587.314999999995,-61136.685,-63166.545,-9140.76,-4254.885
-13161.06,-32279.895,-21150.855,-43459.83,-61014.735,-63104.04,-9071.82,-4221.045
-13154.58,-32214.465,-21135.69,-43438.68,-61020.945,-63120.915,-9044.73,-4211.099999999999
-13187.475,-32258.52,-21190.68,-43513.965,-61103.97,-63183.329999999994,-9058.725,-4232.655
-13141.89,-32249.745,-21195.18,-43525.755,-61095.284999999996,-63192.375,-9067.41,-4238.055
-13057.244999999999,-32190.75,-21175.649999999998,-43497.72,-61033.994999999995,-63178.2,-9084.33,-4220.639999999999
-13005.045,-32077.89,-21090.015,-43436.34,-60977.34,-63158.22,-9034.875,-4194.585
-12990.015,-32017.77,-21046.68,-43420.905,-60997.905,-63174.689999999995,-9000.09,-4196.43
-13010.445,-32061.914999999997,-21052.62,-43439.625,-61022.835,-63194.85,-9005.625,-4223.474999999999
-13015.17,-32051.969999999998,-21056.535,-43440.884999999995,-61022.564999999995,-63201.78,-9019.484999999999,-4238.73
-12989.88,-32000.219999999998,-21067.92,-43445.744999999995,-61030.665,-63217.53,-9003.195,-4236.525
-12953.25,-31969.35,-21076.29,-43499.564999999995,-61114.994999999995,-63271.799999999996,-8996.94,-4230.0
-12966.705,-31999.23,-21110.489999999998,-43551.314999999995,-61172.595,-63297.27,-8986.949999999999,-4247.37
-12960.135,-32003.46,-21115.125,-43569.27,-61159.59,-63303.57,-8993.97,-4253.13
-12929.715,-31999.14,-21111.704999999998,-43539.57,-61099.875,-63299.88,-8992.305,-4245.255
-12895.515,-31966.92,-21084.48,-43502.67,-61060.59,-63299.25,-8977.275,-4242.915
-12867.3,-31918.545,-21031.469999999998,-43486.515,-61067.024999999994,-63311.715,-8978.4,-4253.49
-12840.255,-31895.28,-21006.315,-43457.805,-61043.04,-63294.615,-8975.07,-4252.275
-12825.09,-31924.844999999998,-21063.645,-43492.59,-61073.1,-63330.255,-8985.465,-4245.075
-12811.005,-31928.579999999998,-21080.79,-43510.32,-61095.555,-63359.774999999994,-8983.17,-4247.865
-12775.455,-31882.14,-21060.495,-43500.104999999996,-61086.195,-63353.34,-8967.285,-4247.639999999999
-12755.52,-31856.895,-21051.675,-43499.384999999995,-61082.28,-63355.545,-8967.42,-4250.34
-12730.23,-31816.574999999997,-21067.785,-43505.64,-61085.88,-63358.965,-8945.775,-4245.48
-12708.539999999999,-31794.12,-21054.645,-43511.759999999995,-61099.649999999994,-63375.704999999994,-8948.789999999999,-4249.3949999999995
-12694.904999999999,-31794.84,-21035.114999999998,-43518.78,-61119.854999999996,-63398.744999999995,-8950.994999999999,-4253.8949999999995
-12718.664999999999,-31841.73,-21049.92,-43536.825,-61142.534999999996,-63410.265,-8958.195,-4284.54
-12729.105,-31859.19,-21052.89,-43540.83,-61140.735,-63401.13,-8960.355,-4313.43
-12708.18,-31850.324999999997,-21036.42,-43559.685,-61155.27,-63414.54,-8967.06,-4305.599999999999
-12682.845,-31861.44,-21075.434999999998,-43601.265,-61182.0,-63451.53,-8981.64,-4289.58
-12621.465,-31773.735,-21038.085,-43542.36,-61139.79,-63448.29,-8972.505,-4283.82
-12556.98,-31667.94,-20925.18,-43464.015,-61090.155,-63414.18,-8943.84,-4275.36
-12523.904999999999,-31660.02,-20935.395,-43484.85,-61106.04,-63425.79,-8937.045,-4262.13
-12519.404999999999,-31695.885,-20989.575,-43537.095,-61145.415,-63457.965,-8942.22,-4249.035
-12515.355,-31758.704999999998,-21045.285,-43542.045,-61131.24,-63458.954999999994,-8950.815,-4241.07
-12493.89,-31737.78,-21012.344999999998,-43490.115,-61086.689999999995,-63428.67,-8938.395,-4244.67
-12468.555,-31707.945,-21007.844999999998,-43497.27,-61104.78,-63447.524999999994,-8935.38,-4241.88
-12453.21,-31697.504999999997,-20996.864999999998,-43497.314999999995,-61103.564999999995,-63450.27,-8926.92,-4245.12
-12429.045,-31704.57,-21016.44,-43524.405,-61125.615,-63470.43,-8926.199999999999,-4241.07
-12394.574999999999,-31681.62,-20999.7,-43512.84,-61113.015,-63467.189999999995,-8922.824999999999,-4236.389999999999
-12382.875,-31670.504999999997,-20988.045,-43509.195,-61111.755,-63466.965,-8920.619999999999,-4240.349999999999
-12435.119999999999,-31710.69,-20994.93,-43535.115,-61158.465,-63486.045,-8923.05,-4265.19
-12483.855,-31809.87,-21038.13,-43582.365,-61223.354999999996,-63507.465,-8934.705,-4298.4
-12446.145,-31868.82,-21060.855,-43600.409999999996,-61223.31,-63503.235,-8942.895,-4305.33
-12339.945,-31813.335,-21031.2,-43547.22,-61134.345,-63471.509999999995,-8963.234999999999,-4276.305
-12241.529999999999,-31707.539999999997,-21009.42,-43503.57,-61083.18,-63479.564999999995,-8957.97,-4220.865
-12184.154999999999,-31601.565,-20995.829999999998,-43524.854999999996,-61120.665,-63511.11,-8916.84,-4184.235
-12169.8,-31577.355,-20973.555,-43512.795,-61121.07,-63503.145,-8892.945,-4181.94
-12181.41,-31626.809999999998,-21000.329999999998,-43523.865,-61126.47,-63505.034999999996,-8900.955,-4192.65
-12170.564999999999,-31614.21,-20966.67,-43508.295,-61121.34,-63507.104999999996,-8907.615,-4195.08
-12177.314999999999,-31652.01,-20992.905,-43528.005,-61138.439999999995,-63515.744999999995,-8902.395,-4199.805
-12191.805,-31706.864999999998,-21042.225,-43566.705,-61167.96,-63532.755,-8910.27,-4209.75
-12189.33,-31737.329999999998,-21072.059999999998,-43585.515,-61179.615,-63539.189999999995,-8921.699999999999,-4215.555
-12136.41,-31672.754999999997,-21008.655,-43521.93,-61117.965,-63503.1,-8909.505,-4195.755
-12105.99,-31643.414999999997,-20999.88,-43540.47,-61143.57,-63530.505,-8910.449999999999,-4184.099999999999
-12079.935,-31619.43,-20995.875,-43540.244999999995,-61156.17,-63543.284999999996,-8904.465,-4175.505
-12084.57,-31644.405,-21012.48,-43552.845,-61162.965,-63546.03,-8914.275,-4183.785
-12078.18,-31649.67,-21010.094999999998,-43545.825,-61150.725,-63547.155,-8919.63,-4189.23
-12064.32,-31644.585,-21001.454999999998,-43535.07,-61137.18,-63550.215,-8919.404999999999,-4187.205
-12055.41,-31650.795,-21003.93,-43537.229999999996,-61140.195,-63551.52,-8917.74,-4185.405
-12052.98,-31659.48,-21002.219999999998,-43534.53,-61140.689999999995,-63552.555,-8924.265,-4189.455
-12048.615,-31666.815,-21007.53,-43541.865,-61146.765,-63554.939999999995,-8923.815,-4190.58
-12033.404999999999,-31676.805,-21022.605,-43548.795,-61151.625,-63556.695,-8902.215,-4179.6449999999995
-12021.345,-31675.68,-21027.42,-43559.729999999996,-61164.0,-63565.875,-8904.195,-4176.855
-12026.205,-31679.01,-21017.07,-43557.57,-61166.61,-63565.515,-8914.68,-4186.889999999999
-12037.23,-31688.055,-21005.28,-43557.075,-61169.715,-63559.439999999995,-8919.63,-4200.03
-12046.545,-31707.945,-20997.405,-43567.74,-61178.985,-63562.5,-8926.74,-4206.69
-12048.705,-31741.695,-21006.719999999998,-43580.43,-61188.93,-63579.329999999994,-8941.455,-4200.974999999999
-12049.38,-31772.024999999998,-21028.77,-43588.305,-61197.39,-63589.049999999996,-8944.875,-4195.71
-12033.404999999999,-31759.425,-21057.255,-43597.71,-61208.954999999994,-63599.04,-8937.63,-4192.5599999999995
-12049.289999999999,-31792.68,-21129.344999999998,-43664.715,-61266.915,-63636.39,-8955.27,-4203.945
-12031.56,-31799.475,-21108.195,-43642.034999999996,-61235.46,-63617.04,-8954.505,-4193.19
-11953.71,-31761.675,-21074.715,-43581.06,-61170.345,-63581.939999999995,-8920.395,-4149.764999999999
-11903.445,-31693.004999999997,-21070.035,-43551.945,-61144.2,-63589.905,-8911.395,-4125.014999999999
-11870.279999999999,-31611.914999999997,-21021.255,-43521.57,-61128.09,-63578.97,-8899.109999999999,-4114.889999999999
-11858.4,-31598.73,-21000.915,-43529.58,-61140.329999999994,-63581.174999999996,-8903.115,-4112.91
-11869.965,-31630.815,-21016.665,-43549.335,-61157.159999999996,-63591.795,-8919.27,-4119.075
-11869.244999999999,-31642.829999999998,-21014.82,-43545.284999999996,-61154.865,-63593.235,-8926.244999999999,-4122.045
-11862.539999999999,-31648.949999999997,-21017.204999999998,-43551.314999999995,-61162.965,-63601.244999999995,-8924.4,-4120.47
-11866.095,-31674.78,-21045.375,-43572.555,-61177.365,-63608.715,-8917.289999999999,-4120.38
-11869.515,-31688.414999999997,-21049.469999999998,-43576.29,-61179.479999999996,-63609.03,-8917.289999999999,-4121.639999999999
-11871.72,-31699.844999999998,-21044.52,-43569.945,-61174.755,-63603.54,-8924.175,-4128.165
-11883.779999999999,-31730.985,-21057.704999999998,-43577.145,-61175.744999999995,-63597.869999999995,-8936.279999999999,-4141.26
-11881.439999999999,-31720.77,-21048.57,-43584.659999999996,-61190.82,-63608.445,-8946.63,-4141.53
-11888.865,-31724.145,-21053.07,-43604.189999999995,-61216.604999999996,-63630.81,-8961.975,-4144.365
-11883.914999999999,-31745.61,-21057.614999999998,-43604.595,-61214.354999999996,-63628.424999999996,-8955.99,-4139.37
-11880.765,-31780.485,-21096.809999999998,-43603.47,-61197.39,-63621.674999999996,-8949.734999999999,-4139.505
-11856.645,-31725.989999999998,-21070.665,-43571.025,-61168.365,-63604.755,-8921.609999999999,-4127.04
-11860.695,-31701.015,-21067.245,-43592.49,-61199.82,-63629.235,-8922.914999999999,-4121.415
-11829.33,-31695.84,-21044.52,-43590.195,-61199.415,-63627.615,-8917.244999999999,-4111.29
-11769.795,-31707.765,-21052.395,-43582.634999999995,-61185.195,-63625.905,-8931.015,-4096.44
-11740.05,-31676.76,-21046.32,-43567.515,-61178.085,-63631.89,-8934.93,-4079.295
-11746.484999999999,-31655.34,-21037.77,-43570.034999999996,-61181.685,-63630.81,-8932.68,-4081.8599999999997
-11754.27,-31664.655,-21036.78,-43573.229999999996,-61180.424999999996,-63626.174999999996,-8931.914999999999,-4083.345
-11753.1,-31677.03,-21049.11,-43580.205,-61187.22,-63631.89,-8925.164999999999,-4081.23
-11754.72,-31686.84,-21065.445,-43595.955,-61201.89,-63642.915,-8927.82,-4082.805
-11756.609999999999,-31691.789999999997,-21058.2,-43582.95,-61189.38,-63634.274999999994,-8924.715,-4081.995
-11760.84,-31699.125,-21057.344999999998,-43582.77,-61189.424999999996,-63635.715,-8929.17,-4083.21
-11765.205,-31709.114999999998,-21064.905,-43596.54,-61205.67,-63649.979999999996,-8941.455,-4086.315
-11770.38,-31724.46,-21067.38,-43601.49,-61211.744999999995,-63654.84,-8947.305,-4089.105
-11782.08,-31738.68,-21063.149999999998,-43597.71,-61209.854999999996,-63652.365,-8951.355,-4098.24
-11790.314999999999,-31730.355,-21057.3,-43585.74,-61196.939999999995,-63639.494999999995,-8944.02,-4102.11
-11786.13,-31728.465,-21080.88,-43611.075,-61214.04,-63648.09,-8941.365,-4097.565
-11783.564999999999,-31734.899999999998,-21073.184999999998,-43604.415,-61209.494999999995,-63646.47,-8945.279999999999,-4091.67
-11776.05,-31749.164999999997,-21094.11,-43603.244999999995,-61201.395,-63643.545,-8942.895,-4083.5699999999997
-11759.49,-31737.87,-21083.219999999998,-43595.369999999995,-61196.625,-63645.479999999996,-8936.955,-4072.815
-11769.525,-31757.219999999998,-21097.934999999998,-43612.965,-61209.945,-63654.435,-8942.895,-4072.365
-11790.81,-31784.445,-21121.559999999998,-43629.884999999995,-61232.49,-63669.42,-8959.59,-4085.2349999999997
-11790.045,-31782.375,-21112.785,-43626.33,-61227.45,-63662.49,-8954.91,-4086.27
-11787.75,-31787.73,-21107.655,-43641.72,-61238.7,-63674.595,-8965.664999999999,-4080.915
-11797.244999999999,-31809.645,-21136.725,-43659.134999999995,-61261.29,-63693.765,-8962.154999999999,-4075.92
-11815.65,-31831.785,-21139.02,-43651.439999999995,-61258.994999999995,-63685.845,-8956.125,-4087.035
-11830.545,-31839.704999999998,-21104.864999999998,-43621.515,-61220.97,-63656.369999999995,-8962.65,-4101.885
-11783.835,-31769.504999999997,-21081.915,-43586.055,-61176.24,-63635.534999999996,-8968.68,-4088.0699999999997
-11723.76,-31669.829999999998,-21056.309999999998,-43575.39,-61174.755,-63649.305,-8956.26,-4054.5899999999997
-11684.564999999999,-31615.515,-21014.73,-43555.365,-61168.725,-63656.82,-8942.715,-4028.22
-11707.47,-31660.739999999998,-21049.29,-43578.18,-61185.329999999994,-63660.104999999996,-8932.365,-4033.44
-11746.17,-31724.46,-21098.7,-43618.275,-61216.38,-63667.034999999996,-8926.47,-4049.415
-11762.82,-31749.93,-21121.335,-43638.119999999995,-61231.545,-63673.74,-8940.195,-4060.89
-11754.0,-31745.879999999997,-21101.67,-43620.57,-61222.77,-63677.115,-8948.43,-4056.435
-11734.65,-31730.715,-21068.415,-43582.68,-61193.115,-63670.68,-8942.94,-4038.0299999999997
-11739.869999999999,-31732.92,-21074.445,-43587.854999999996,-61197.03,-63674.415,-8951.58,-4039.02
-11741.31,-31724.414999999997,-21066.48,-43594.65,-61211.295,-63678.6,-8954.19,-4039.92
-11738.205,-31725.27,-21080.7,-43604.595,-61218.494999999995,-63680.715,-8954.145,-4038.48
-11741.31,-31745.114999999998,-21107.385,-43612.11,-61215.84,-63674.774999999994,-8943.029999999999,-4037.7149999999997
-11755.664999999999,-31775.715,-21132.0,-43635.42,-61224.57,-63680.49,-8948.025,-4044.7799999999997
-11748.195,-31748.129999999997,-21084.614999999998,-43602.119999999995,-61202.295,-63674.369999999995,-8955.81,-4046.22
