ch_0,ch_1,ch_2,ch_3,ch_4,ch_5,ch_6,ch_7
-9266.58,-29755.844999999998,-6478.245,-22843.89,-21619.755,-26735.445,-21318.39,-1913.22
-9256.59,-29737.215,-6420.599999999999,-22812.344999999998,-21608.055,-26750.835,-21326.445,-1904.6699999999998
-9265.994999999999,-29723.355,-6390.54,-22798.485,-21601.035,-26753.895,-21336.255,-1912.095
-9271.08,-29720.07,-6397.335,-22800.78,-21595.094999999998,-26734.725,-21332.07,-1922.9399999999998
-9278.369999999999,-29720.34,-6407.505,-22802.219999999998,-21583.665,-26697.69,-21316.905,-1937.07
-9287.82,-29730.105,-6422.8949999999995,-22818.51,-21587.489999999998,-26677.035,-21293.91,-1952.0549999999998
-9281.565,-29735.055,-6440.715,-22849.515,-21617.19,-26696.61,-21272.13,-1951.245
-9275.175,-29745.809999999998,-6486.66,-22874.985,-21633.03,-26709.93,-21273.524999999998,-1949.6699999999998
-9257.13,-29762.91,-6545.025,-22879.17,-21627.899999999998,-26713.215,-21281.175,-1938.2849999999999
-9249.705,-29793.914999999997,-6596.099999999999,-22881.329999999998,-21629.204999999998,-26727.434999999998,-21282.21,-1928.1599999999999
-9253.755,-29814.84,-6581.745,-22867.155,-21625.785,-26745.254999999997,-21298.364999999998,-1932.7949999999998
-9253.98,-29797.155,-6491.745,-22837.59,-21618.719999999998,-26768.204999999998,-21318.524999999998,-1930.905
-9264.24,-29769.03,-6435.224999999999,-22830.704999999998,-21625.829999999998,-26788.725,-21333.329999999998,-1940.9399999999998
-9264.42,-29729.655,-6399.09,-22823.1,-21623.94,-26781.164999999997,-21332.114999999998,-1946.115
-9264.824999999999,-29696.129999999997,-6379.0199999999995,-22802.579999999998,-21593.745,-26729.19,-21316.274999999998,-1952.955
-9286.56,-29731.68,-6419.115,-22808.52,-21578.985,-26684.414999999997,-21298.815,-1971.855
-9280.845,-29735.594999999998,-6438.554999999999,-22822.605,-21589.695,-26688.914999999997,-21285.18,-1969.695
-9270.99,-29728.035,-6441.12,-22842.899999999998,-21615.21,-26714.16,-21281.805,-1960.83
-9270.585,-29721.555,-6431.804999999999,-22842.54,-21614.895,-26720.145,-21291.795,-1959.48
-9260.505,-29706.704999999998,-6419.429999999999,-22835.61,-21613.77,-26730.899999999998,-21295.89,-1949.04
-9265.095,-29717.19,-6433.5599999999995,-22833.27,-21609.09,-26741.25,-21297.285,-1947.2849999999999
-9265.23,-29723.265,-6445.9349999999995,-22833.629999999997,-21615.12,-26769.825,-21307.05,-1943.865
-9268.244999999999,-29736.675,-6450.884999999999,-22830.48,-21618.045,-26784.855,-21315.555,-1944.1799999999998
-9273.555,-29765.43,-6457.455,-22829.129999999997,-21611.835,-26767.754999999997,-21307.364999999998,-1945.1699999999998
-9285.525,-29765.07,-6445.755,-22816.754999999997,-21586.905,-26716.32,-21288.42,-1956.8249999999998
-9308.385,-29762.864999999998,-6434.775,-22808.969999999998,-21565.215,-26669.52,-21271.635,-1974.5549999999998
-9302.94,-29754.36,-6439.32,-22814.504999999997,-21565.665,-26662.68,-21264.255,-1976.31
-9287.82,-29768.895,-6460.335,-22826.879999999997,-21574.44,-26674.739999999998,-21257.28,-1965.0149999999999
-9278.955,-29773.62,-6467.94,-22836.195,-21584.88,-26691.12,-21257.73,-1955.97
-9272.295,-29759.175,-6473.07,-22853.114999999998,-21609.315,-26729.774999999998,-21274.11,-1953.855
-9253.395,-29732.579999999998,-6467.67,-22849.695,-21618.495,-26757.539999999997,-21281.67,-1939.32
-9249.164999999999,-29761.335,-6485.04,-22850.01,-21628.485,-26790.48,-21291.614999999998,-1929.8249999999998
-9263.115,-29768.039999999997,-6482.025,-22845.78,-21626.82,-26797.05,-21294.63,-1926.7649999999999
-9269.73,-29750.265,-6465.554999999999,-22850.235,-21630.6,-26789.445,-21294.765,-1934.5049999999999
-9282.015,-29751.074999999997,-6444.855,-22835.745,-21604.68,-26736.93,-21277.17,-1946.205
-9319.365,-29786.039999999997,-6446.88,-22825.8,-21577.815,-26683.155,-21261.42,-1974.4199999999998
-9311.67,-29771.594999999998,-6443.955,-22822.469999999998,-21567.105,-26664.075,-21247.425,-1971.72
-9282.96,-29746.664999999997,-6445.665,-22827.105,-21574.26,-26677.575,-21242.52,-1953.99
-9287.865,-29752.965,-6445.215,-22820.895,-21571.785,-26685.855,-21246.03,-1955.52
-9284.355,-29745.899999999998,-6441.4349999999995,-22821.3,-21579.165,-26703.809999999998,-21251.16,-1954.26
-9268.65,-29720.204999999998,-6437.969999999999,-22831.785,-21596.579999999998,-26736.03,-21261.78,-1947.5549999999998
-9255.24,-29689.649999999998,-6424.245,-22830.84,-21606.704999999998,-26770.004999999997,-21276.36,-1942.9199999999998
-9253.71,-29705.355,-6438.42,-22833.945,-21613.005,-26786.565,-21280.95,-1943.0549999999998
-9256.815,-29756.879999999997,-6460.74,-22833.045,-21605.579999999998,-26765.145,-21267.045,-1941.0749999999998
-9287.685,-29801.475,-6470.37,-22828.5,-21585.87,-26716.454999999998,-21249.18,-1964.0249999999999
-9318.869999999999,-29813.535,-6473.61,-22831.829999999998,-21573.989999999998,-26677.44,-21243.6,-1996.3799999999999
-9311.445,-29780.954999999998,-6454.3949999999995,-22828.545,-21569.579999999998,-26666.82,-21242.204999999998,-2002.4099999999999
-9304.65,-29756.699999999997,-6440.804999999999,-22816.26,-21558.42,-26660.475,-21243.375,-2002.8149999999998
-9299.699999999999,-29741.895,-6437.835,-22811.445,-21557.43,-26671.635,-21250.98,-2005.6499999999999
-9283.32,-29740.68,-6457.545,-22835.61,-21593.114999999998,-26724.87,-21256.469999999998,-1999.845
-9268.47,-29752.379999999997,-6473.79,-22843.125,-21608.684999999998,-26751.87,-21260.745,-1987.83
-9265.725,-29768.535,-6481.53,-22849.065,-21620.565,-26782.515,-21275.73,-1983.8249999999998
-9267.93,-29762.82,-6460.245,-22846.094999999998,-21619.71,-26787.78,-21281.67,-1984.1399999999999
-9286.425,-29735.46,-6436.8,-22847.129999999997,-21620.07,-26782.02,-21280.274999999998,-2002.0049999999999
-9292.545,-29726.01,-6454.17,-22859.415,-21616.065,-26751.914999999997,-21261.825,-2011.5
-9302.805,-29757.239999999998,-6503.625,-22873.23,-21607.785,-26709.84,-21246.66,-2024.685
-9293.445,-29806.065,-6550.875,-22877.594999999998,-21602.07,-26692.469999999998,-21236.219999999998,-2022.2549999999999
-9309.195,-29869.289999999997,-6569.37,-22884.075,-21607.02,-26703.045,-21239.28,-2029.32
-9320.22,-29857.004999999997,-6543.63,-22876.11,-21603.149999999998,-26708.94,-21245.445,-2030.355
-9299.43,-29812.454999999998,-6503.13,-22861.485,-21602.745,-26727.75,-21257.415,-2018.0249999999999
-9291.555,-29773.125,-6456.195,-22852.53,-21609.765,-26754.344999999998,-21274.245,-2020.05
-9276.66,-29731.23,-6413.8949999999995,-22833.18,-21605.085,-26771.489999999998,-21284.55,-2018.4299999999998
-9262.17,-29704.815,-6388.469999999999,-22816.035,-21597.795,-26774.55,-21285.405,-2010.33
-9281.295,-29705.175,-6389.28,-22815.989999999998,-21595.094999999998,-26760.465,-21280.454999999998,-2017.53
-9306.0,-29734.245,-6412.545,-22823.954999999998,-21587.489999999998,-26722.53,-21259.305,-2025.81
-9337.275,-29763.315,-6435.315,-22825.079999999998,-21570.165,-26678.024999999998,-21241.98,-2047.77
-9360.315,-29771.55,-6440.49,-22817.879999999997,-21552.48,-26650.754999999997,-21232.665,-2060.2799999999997
-9344.789999999999,-29796.75,-6453.224999999999,-22825.665,-21561.03,-26662.5,-21234.96,-2052.63
-9317.744999999999,-29781.855,-6451.74,-22829.355,-21568.23,-26680.815,-21247.695,-2046.24
-9312.84,-29747.114999999998,-6446.79,-22836.239999999998,-21584.295,-26707.274999999998,-21257.28,-2040.75
-9308.789999999999,-29720.385,-6440.49,-22855.14,-21616.335,-26754.254999999997,-21264.57,-2032.875
-9300.42,-29731.094999999998,-6441.525,-22867.559999999998,-21634.245,-26793.855,-21276.719999999998,-2020.455
-9299.205,-29802.015,-6480.945,-22879.125,-21643.11,-26806.905,-21282.165,-2014.56
-9302.625,-29873.879999999997,-6552.945,-22890.69,-21642.614999999998,-26789.625,-21273.344999999998,-2016.27
-9309.465,-29860.469999999998,-6580.844999999999,-22875.48,-21614.76,-26737.695,-21258.405,-2027.52
-9331.244999999999,-29848.274999999998,-6561.224999999999,-22862.34,-21592.305,-26693.325,-21247.02,-2046.8249999999998
-9316.305,-29822.895,-6502.094999999999,-22854.555,-21593.204999999998,-26693.145,-21246.975,-2045.79
-9319.185,-29798.46,-6438.285,-22831.965,-21585.96,-26698.86,-21260.204999999998,-2053.5299999999997
-9312.029999999999,-29733.254999999997,-6391.349999999999,-22805.64,-21572.01,-26699.129999999997,-21268.35,-2050.335
-9308.789999999999,-29713.995,-6381.405,-22800.465,-21572.594999999998,-26709.84,-21274.965,-2047.455
-9308.97,-29718.495,-6401.295,-22810.14,-21583.62,-26731.754999999997,-21280.77,-2042.145
-9303.164999999999,-29718.045,-6399.179999999999,-22803.75,-21582.27,-26748.585,-21284.82,-2032.83
-9295.74,-29714.265,-6397.514999999999,-22807.62,-21592.8,-26771.039999999997,-21284.82,-2025.0
-9285.615,-29704.545,-6398.009999999999,-22817.879999999997,-21604.815,-26768.204999999998,-21276.18,-2021.175
-9291.96,-29720.969999999998,-6416.37,-22827.375,-21601.98,-26739.899999999998,-21257.594999999998,-2027.97
-9327.734999999999,-29766.015,-6446.5199999999995,-22835.7,-21589.515,-26699.76,-21243.915,-2051.055
-9342.539999999999,-29782.53,-6449.264999999999,-22824.45,-21569.085,-26669.16,-21231.045,-2059.65
-9343.08,-29787.57,-6457.679999999999,-22830.84,-21577.68,-26684.37,-21232.665,-2059.47
-9329.265,-29772.09,-6447.6449999999995,-22824.989999999998,-21577.59,-26696.07,-21235.86,-2048.4449999999997
-9318.42,-29749.995,-6443.955,-22826.969999999998,-21586.545,-26718.48,-21243.735,-2039.49
-9307.125,-29729.925,-6449.58,-22835.25,-21603.645,-26753.67,-21257.01,-2033.3249999999998
-9291.015,-29783.879999999997,-6453.719999999999,-22831.245,-21608.325,-26778.96,-21260.43,-2013.7949999999998
-9302.67,-29869.965,-6472.755,-22844.16,-21620.655,-26796.555,-21262.815,-2013.615
-9319.725,-29887.245,-6501.33,-22857.12,-21619.89,-26778.239999999998,-21252.825,-2022.2549999999999
-9322.74,-29905.379999999997,-6560.009999999999,-22875.12,-21621.825,-26751.149999999998,-21231.765,-2023.245
-9339.795,-29924.19,-6615.99,-22894.649999999998,-21626.594999999998,-26731.844999999998,-21222.315,-2041.56
-9334.44,-29908.079999999998,-6585.974999999999,-22885.559999999998,-21614.76,-26714.61,-21215.565,-2043.99
-9340.244999999999,-29913.434999999998,-6533.1449999999995,-22870.44,-21606.12,-26714.34,-21213.855,-2039.8049999999998
-9355.32,-29847.555,-6491.565,-22859.46,-21603.105,-26725.995,-21225.105,-2050.74
-9345.06,-29783.52,-6463.215,-22844.79,-21601.62,-26745.254999999997,-21243.645,-2055.87
-9301.725,-29678.805,-6406.38,-22813.605,-21593.34,-26762.535,-21259.755,-2042.28
-9285.57,-29652.93,-6388.065,-22805.01,-21598.245,-26791.92,-21270.195,-2029.905
-9294.795,-29668.59,-6390.855,-22806.54,-21601.755,-26804.565,-21276.18,-2033.1899999999998
-9306.09,-29683.754999999997,-6394.634999999999,-22806.945,-21597.57,-26789.265,-21275.055,-2047.8149999999998
-9325.08,-29697.57,-6396.3,-22794.614999999998,-21568.094999999998,-26731.26,-21253.905,-2062.665
-9331.605,-29705.67,-6404.804999999999,-22805.325,-21569.219999999998,-26708.489999999998,-21241.89,-2074.3199999999997
-9334.08,-29717.954999999998,-6409.259999999999,-22811.219999999998,-21569.175,-26700.704999999998,-21233.204999999998,-2076.39
-9327.645,-29751.885,-6425.054999999999,-22807.44,-21566.295,-26701.469999999998,-21226.454999999998,-2065.725
-9335.565,-29813.76,-6453.855,-22809.015,-21569.219999999998,-26712.629999999997,-21229.515,-2065.005
-9351.855,-29833.11,-6468.255,-22818.6,-21578.445,-26730.675,-21244.23,-2076.84
-9331.92,-29782.53,-6448.455,-22824.899999999998,-21595.274999999998,-26764.425,-21258.315,-2068.38
-9307.484999999999,-29719.17,-6412.86,-22820.67,-21605.219999999998,-26797.905,-21272.13,-2054.52
-9296.73,-29678.67,-6383.88,-22823.64,-21614.085,-26814.015,-21279.555,-2051.595
-9299.205,-29703.824999999997,-6396.929999999999,-22825.395,-21611.295,-26799.795,-21272.579999999998,-2051.685
-9325.845,-29779.559999999998,-6462.2699999999995,-22832.594999999998,-21597.84,-26755.92,-21250.89,-2063.52
-9349.56,-29835.539999999997,-6518.295,-22837.86,-21582.18,-26713.844999999998,-21233.79,-2076.975
-9345.105,-29849.039999999997,-6524.28,-22836.6,-21573.18,-26698.05,-21222.27,-2070.99
-9344.565,-29862.27,-6507.945,-22837.094999999998,-21578.625,-26711.594999999998,-21226.995,-2070.09
-9327.06,-29831.219999999998,-6472.125,-22833.495,-21590.594999999998,-26742.149999999998,-21233.43,-2059.83
-9318.914999999999,-29777.579999999998,-6430.995,-22820.94,-21591.18,-26758.62,-21245.895,-2055.87
-9313.47,-29723.625,-6399.2699999999995,-22806.27,-21585.465,-26766.36,-21257.415,-2055.69
-9300.734999999999,-29716.379999999997,-6407.28,-22814.64,-21600.765,-26797.95,-21268.125,-2044.8899999999999
-9301.365,-29732.355,-6417.134999999999,-22822.605,-21609.899999999998,-26811.809999999998,-21273.66,-2041.0649999999998
-9308.07,-29747.565,-6424.514999999999,-22825.98,-21606.21,-26793.765,-21265.469999999998,-2043.495
-9335.654999999999,-29772.765,-6435.09,-22826.565,-21592.665,-26757.765,-21248.82,-2065.545
-9355.05,-29792.114999999998,-6451.245,-22826.655,-21578.445,-26727.164999999997,-21240.225,-2089.08
-9355.815,-29799.405,-6468.165,-22828.95,-21571.335,-26708.715,-21230.145,-2090.52
-9348.345,-29792.114999999998,-6482.16,-22836.105,-21581.01,-26723.34,-21226.14,-2074.995
-9354.96,-29859.614999999998,-6523.514999999999,-22864.545,-21603.329999999998,-26747.73,-21226.454999999998,-2069.955
-9343.574999999999,-30063.555,-6584.13,-22892.535,-21626.82,-26777.114999999998,-21230.415,-2063.9249999999997
-9330.84,-30100.815,-6635.925,-22908.645,-21647.295,-26812.079999999998,-21237.434999999998,-2054.34
-9347.13,-29980.485,-6620.264999999999,-22898.34,-21647.07,-26834.67,-21253.05,-2058.48
-9371.565,-29915.684999999998,-6557.4,-22874.579999999998,-21627.45,-26826.795,-21255.48,-2063.0699999999997
-9390.555,-29885.085,-6537.554999999999,-22868.415,-21616.92,-26804.879999999997,-21248.82,-2069.73
-9360.539999999999,-29768.265,-6474.6449999999995,-22847.85,-21600.945,-26765.73,-21246.165,-2079.9449999999997
-9333.585,-29701.98,-6417.45,-22821.344999999998,-21577.14,-26724.105,-21242.25,-2091.015
-9320.625,-29690.594999999998,-6391.62,-22806.855,-21560.805,-26703.855,-21237.84,-2090.97
-9304.605,-29719.215,-6395.715,-22812.57,-21573.585,-26731.215,-21229.739999999998,-2074.095
-9302.175,-29730.42,-6401.7,-22803.975,-21570.165,-26750.879999999997,-21231.09,-2068.965
-9304.289999999999,-29693.204999999998,-6397.92,-22804.29,-21575.745,-26771.265,-21244.5,-2075.49
-9292.32,-29671.379999999997,-6389.6849999999995,-22805.82,-21583.44,-26793.495,-21250.89,-2068.56
-9277.199999999999,-29672.73,-6394.23,-22813.379999999997,-21591.27,-26813.969999999998,-21262.454999999998,-2055.7799999999997
-9267.435,-29703.285,-6412.815,-22829.129999999997,-21609.765,-26838.27,-21267.405,-2045.655
-9274.59,-29763.629999999997,-6454.844999999999,-22839.03,-21612.105,-26827.695,-21259.71,-2047.5
-9294.074999999999,-29792.565,-6479.009999999999,-22840.02,-21597.93,-26787.78,-21240.719999999998,-2058.615
-9332.1,-29835.27,-6489.495,-22836.555,-21579.75,-26744.535,-21223.079999999998,-2074.68
-9362.744999999999,-29884.004999999997,-6497.73,-22830.75,-21563.325,-26714.114999999998,-21213.855,-2089.665
-9378.0,-29884.68,-6480.9,-22813.515,-21546.27,-26698.725,-21209.895,-2091.1949999999997
-9343.89,-29830.364999999998,-6459.075,-22819.59,-21571.2,-26740.26,-21219.075,-2077.965
-9317.97,-29772.539999999997,-6429.24,-22815.18,-21584.52,-26777.295,-21224.565,-2063.295
