ch_0,ch_1,ch_2,ch_3,ch_4,ch_5,ch_6,ch_7
28425.96,1258.83,-4387.095,-10319.76,-21267.809999999998,-48571.064999999995,13052.925,-12468.734999999999
28415.61,1259.235,-4383.224999999999,-10311.84,-21259.755,-48566.384999999995,13054.904999999999,-12470.49
28400.085,1259.325,-4378.815,-10315.17,-21260.52,-48578.445,13048.335,-12475.664999999999
28386.945,1259.9099999999999,-4376.88,-10325.07,-21270.825,-48615.84,13069.394999999999,-12454.56
28361.969999999998,1251.6299999999999,-4383.63,-10343.744999999999,-21295.17,-48658.275,13082.31,-12436.74
28330.379999999997,1251.0449999999998,-4376.474999999999,-10338.3,-21296.88,-48675.825,13081.68,-12426.39
28296.45,1248.93,-4371.165,-10327.77,-21288.329999999998,-48662.595,13082.22,-12420.314999999999
28261.754999999997,1234.98,-4373.055,-10310.67,-21265.785,-48639.015,13080.555,-12422.34
28222.695,1213.9199999999998,-4379.67,-10281.42,-21225.465,-48604.77,13069.394999999999,-12443.265
28199.52,1204.3799999999999,-4379.264999999999,-10257.345,-21181.77,-48563.46,13073.22,-12451.32
28181.204999999998,1189.125,-4394.97,-10273.14,-21184.065,-48560.939999999995,13067.73,-12465.09
28174.635,1177.56,-4412.655,-10302.21,-21203.055,-48587.265,13067.46,-12468.06
28190.52,1186.7849999999999,-4412.115,-10323.945,-21219.795,-48625.784999999996,13080.734999999999,-12445.244999999999
28200.6,1197.81,-4408.92,-10351.035,-21249.675,-48683.34,13090.095,-12427.83
28203.48,1207.08,-4409.055,-10374.93,-21276.045,-48739.095,13099.095,-12412.664999999999
28207.575,1221.075,-4402.53,-10382.445,-21287.88,-48782.97,13111.74,-12388.545
28204.02,1231.2,-4395.51,-10373.715,-21278.925,-48806.369999999995,13122.045,-12371.805
28186.11,1224.495,-4407.57,-10381.68,-21288.465,-48845.475,13124.295,-12369.96
28169.28,1216.665,-4420.665,-10383.66,-21287.16,-48864.645,13117.769999999999,-12372.615
28167.75,1224.18,-4416.84,-10371.015,-21264.3,-48843.63,13120.83,-12365.82
28157.985,1212.2549999999999,-4432.095,-10368.045,-21250.395,-48826.439999999995,13112.234999999999,-12378.015
28151.73,1201.0049999999999,-4446.99,-10364.805,-21231.18,-48807.945,13115.34,-12383.279999999999
28132.02,1188.99,-4457.205,-10359.99,-21217.995,-48791.295,13112.64,-12400.064999999999
28129.995,1207.26,-4439.385,-10346.805,-21204.855,-48788.955,13128.345,-12386.07
28129.32,1225.215,-4428.495,-10343.34,-21202.829999999998,-48797.369999999995,13137.074999999999,-12368.789999999999
28106.1,1214.955,-4443.84,-10361.789999999999,-21226.68,-48820.455,13119.435,-12380.76
28095.57,1216.44,-4450.095,-10377.9,-21241.575,-48842.549999999996,13131.404999999999,-12376.17
28098.989999999998,1223.145,-4459.095,-10421.145,-21288.465,-48923.009999999995,13149.449999999999,-12357.539999999999
28117.844999999998,1247.1299999999999,-4445.054999999999,-10450.845,-21319.92,-48982.365,13150.8,-12334.68
28134.675,1265.355,-4431.285,-10454.895,-21319.38,-49003.83,13145.76,-12326.039999999999
28135.125,1254.2849999999999,-4443.165,-10443.914999999999,-21290.355,-48977.685,13131.675,-12343.455
28118.16,1233.6299999999999,-4456.62,-10415.925,-21239.505,-48914.1,13108.949999999999,-12382.244999999999
28091.07,1207.08,-4480.92,-10429.289999999999,-21243.149999999998,-48915.945,13101.705,-12413.115
28082.43,1207.0349999999999,-4490.865,-10463.895,-21273.614999999998,-48960.99,13108.994999999999,-12409.515
28093.41,1232.28,-4474.304999999999,-10470.42,-21280.68,-48975.075,13115.564999999999,-12383.595
28089.855,1242.675,-4471.92,-10485.359999999999,-21298.094999999998,-48996.63,13117.904999999999,-12367.845
28079.82,1249.02,-4470.255,-10490.265,-21285.809999999998,-48998.79,13121.144999999999,-12366.494999999999
28064.879999999997,1244.835,-4476.87,-10491.435,-21271.995,-49003.604999999996,13119.39,-12382.02
28060.379999999997,1244.115,-4488.3,-10508.715,-21281.535,-49019.04,13127.13,-12384.314999999999
28079.684999999998,1262.475,-4481.82,-10519.92,-21296.655,-49049.865,13132.484999999999,-12365.369999999999
28088.235,1264.05,-4483.889999999999,-10510.109999999999,-21287.835,-49049.775,13121.595,-12372.255
28093.41,1257.12,-4502.7,-10510.244999999999,-21283.245,-49043.295,13125.195,-12373.965
28092.735,1249.11,-4525.47,-10526.76,-21292.92,-49049.505,13117.365,-12375.314999999999
28103.355,1264.815,-4520.115,-10545.57,-21315.015,-49075.515,13118.984999999999,-12363.57
28113.12,1280.1599999999999,-4512.42,-10542.06,-21307.95,-49075.74,13134.375,-12346.74
28111.454999999998,1286.5049999999999,-4516.74,-10562.625,-21321.405,-49096.17,13141.035,-12338.279999999999
28105.695,1290.96,-4524.974999999999,-10591.289999999999,-21339.18,-49099.455,13143.105,-12332.52
28098.45,1291.995,-4521.465,-10580.85,-21322.035,-49090.455,13130.91,-12340.305
28093.23,1293.12,-4516.83,-10557.045,-21293.774999999998,-49069.08,13123.935,-12352.545
28078.829999999998,1272.105,-4538.88,-10545.66,-21271.274999999998,-49036.68,13108.635,-12384.99
28055.7,1239.57,-4574.205,-10532.295,-21234.375,-48985.604999999996,13105.394999999999,-12419.369999999999
28064.61,1240.335,-4587.389999999999,-10542.285,-21235.274999999998,-48995.009999999995,13118.445,-12406.32
28087.785,1268.46,-4574.835,-10574.685,-21280.635,-49048.695,13121.505,-12385.215
28114.92,1296.405,-4564.9349999999995,-10610.64,-21331.53,-49108.77,13129.56,-12360.195
28134.719999999998,1321.245,-4553.55,-10628.595,-21355.425,-49144.275,13134.869999999999,-12336.93
28135.485,1332.81,-4547.565,-10629.539999999999,-21353.805,-49153.77,13129.244999999999,-12326.58
28131.885,1344.87,-4537.889999999999,-10605.645,-21320.145,-49123.259999999995,13128.3,-12324.195
28116.809999999998,1335.87,-4552.38,-10606.5,-21309.165,-49107.78,13131.269999999999,-12335.445
28095.704999999998,1318.05,-4570.65,-10609.74,-21294.899999999998,-49086.63,13120.019999999999,-12362.984999999999
28083.285,1304.055,-4586.8949999999995,-10609.74,-21284.415,-49079.205,13128.795,-12376.305
28088.594999999998,1304.955,-4600.485,-10627.02,-21300.57,-49089.195,13133.385,-12376.125
28113.39,1329.48,-4591.17,-10633.904999999999,-21307.14,-49094.729999999996,13120.56,-12368.16
28135.035,1350.7649999999999,-4579.2,-10635.345,-21313.755,-49114.979999999996,13123.619999999999,-12355.47
28146.87,1359.675,-4581.855,-10655.955,-21337.649999999998,-49152.284999999996,13138.83,-12340.439999999999
28155.914999999997,1370.97,-4581.764999999999,-10683.494999999999,-21372.885,-49191.795,13144.635,-12327.074999999999
28151.594999999998,1374.975,-4584.96,-10701.27,-21390.12,-49209.75,13141.71,-12318.345
28137.285,1375.11,-4582.125,-10686.24,-21373.065,-49197.555,13125.734999999999,-12331.98
28117.8,1365.345,-4590.585,-10680.119999999999,-21366.0,-49169.7,13129.425,-12346.425
28117.17,1368.135,-4595.264999999999,-10673.46,-21351.6,-49150.305,13144.59,-12339.63
28124.504999999997,1367.28,-4610.295,-10681.425,-21354.975,-49153.049999999996,13147.154999999999,-12335.355
28142.28,1377.54,-4615.29,-10694.295,-21355.649999999998,-49161.645,13151.835,-12321.09
28159.245,1389.33,-4619.88,-10724.49,-21389.219999999998,-49207.545,13145.22,-12314.744999999999
28170.585,1402.47,-4602.375,-10690.289999999999,-21357.989999999998,-49193.64,13137.795,-12312.225
28142.37,1376.19,-4616.054999999999,-10654.02,-21308.04,-49147.965,13124.16,-12349.664999999999
28098.135,1336.68,-4645.53,-10641.779999999999,-21275.55,-49111.74,13124.88,-12391.244999999999
28080.809999999998,1321.56,-4661.325,-10649.744999999999,-21281.625,-49132.125,13122.855,-12393.314999999999
28089.36,1341.8999999999999,-4648.32,-10670.715,-21313.26,-49176.63,13130.369999999999,-12368.654999999999
28108.215,1363.6799999999998,-4637.205,-10697.4,-21348.225,-49237.784999999996,13141.619999999999,-12342.689999999999
28133.28,1380.69,-4628.07,-10713.6,-21370.815,-49273.74,13153.095,-12319.83
28158.795,1397.79,-4618.71,-10717.605,-21378.915,-49272.345,13163.85,-12299.715
28172.07,1394.73,-4622.58,-10710.675,-21364.739999999998,-49249.395,13156.199999999999,-12303.045
28167.614999999998,1373.6699999999998,-4642.92,-10707.345,-21343.995,-49223.07,13133.25,-12330.765
28168.829999999998,1366.875,-4649.04,-10708.02,-21334.995,-49220.955,13127.76,-12337.605
28176.93,1374.9299999999998,-4640.76,-10709.91,-21342.78,-49255.064999999995,13140.135,-12326.31
28187.774999999998,1391.8049999999998,-4630.5,-10716.074999999999,-21362.265,-49283.055,13150.35,-12308.939999999999
28181.879999999997,1395.72,-4634.865,-10726.38,-21371.76,-49294.71,13149.18,-12305.25
28166.489999999998,1392.21,-4630.139999999999,-10706.13,-21350.204999999998,-49300.74,13147.695,-12312.675
28154.925,1375.245,-4633.605,-10687.095,-21332.43,-49291.244999999995,13144.185,-12323.654999999999
28146.78,1355.895,-4651.47,-10687.815,-21329.73,-49269.104999999996,13138.425,-12337.74
28150.965,1346.04,-4658.264999999999,-10691.685,-21326.355,-49242.06,13143.105,-12340.755
28170.18,1352.25,-4650.075,-10689.21,-21325.32,-49241.61,13146.39,-12334.59
28177.92,1348.425,-4654.53,-10695.914999999999,-21341.34,-49267.215,13141.26,-12340.395
28192.635,1356.5249999999999,-4652.19,-10707.029999999999,-21363.39,-49285.619999999995,13155.21,-12324.689999999999
28196.774999999998,1356.345,-4659.48,-10724.039999999999,-21381.344999999998,-49300.244999999995,13157.91,-12315.06
28206.945,1370.52,-4641.974999999999,-10702.664999999999,-21362.85,-49297.229999999996,13160.16,-12298.41
28200.059999999998,1376.5049999999999,-4633.335,-10691.82,-21346.829999999998,-49291.515,13154.355,-12301.38
28179.27,1362.195,-4642.605,-10679.039999999999,-21324.465,-49267.89,13155.435,-12312.99
28163.204999999998,1350.0,-4649.8949999999995,-10659.645,-21297.375,-49238.909999999996,13151.34,-12321.449999999999
28157.309999999998,1340.37,-4660.155,-10661.445,-21291.12,-49234.59,13158.63,-12324.105
28156.14,1336.365,-4665.96,-10676.744999999999,-21309.795,-49254.615,13151.475,-12337.74
28168.11,1337.94,-4668.48,-10681.56,-21317.85,-49267.979999999996,13142.789999999999,-12342.689999999999
28191.645,1345.995,-4663.98,-10677.24,-21318.84,-49273.155,13152.375,-12326.715
28207.98,1350.72,-4665.825,-10692.27,-21340.395,-49304.744999999995,13159.215,-12312.72
28223.1,1357.5149999999999,-4666.679999999999,-10715.58,-21367.755,-49340.43,13158.855,-12300.3
28245.51,1384.5149999999999,-4640.804999999999,-10706.265,-21365.73,-49340.97,13156.83,-12279.869999999999
28246.68,1388.8799999999999,-4632.84,-10685.115,-21347.055,-49321.845,13148.505,-12274.74
28222.02,1367.685,-4640.264999999999,-10656.72,-21309.48,-49269.42,13144.68,-12296.52
28195.11,1342.35,-4649.8949999999995,-10634.13,-21278.114999999998,-49230.134999999995,13137.119999999999,-12327.164999999999
28184.085,1325.07,-4665.915,-10643.31,-21284.954999999998,-49237.064999999995,13146.164999999999,-12337.965
28208.114999999998,1337.49,-4667.8949999999995,-10678.635,-21330.899999999998,-49290.255,13142.654999999999,-12324.15
28246.32,1361.205,-4653.135,-10689.164999999999,-21346.38,-49316.085,13140.81,-12299.13
28267.11,1373.5349999999999,-4637.25,-10665.99,-21326.13,-49296.78,13139.82,-12291.345
28261.485,1360.98,-4642.695,-10646.595,-21302.505,-49268.205,13132.8,-12313.215
28243.395,1336.95,-4664.115,-10655.505,-21306.78,-49268.115,13129.47,-12338.55
28245.78,1336.4099999999999,-4664.07,-10667.115,-21323.43,-49291.47,13146.885,-12325.365
28257.03,1347.12,-4654.035,-10680.93,-21344.399999999998,-49316.985,13148.775,-12305.295
28246.68,1337.22,-4655.79,-10678.949999999999,-21339.719999999998,-49306.905,13143.33,-12311.505
28232.91,1324.395,-4656.915,-10666.935,-21314.475,-49268.07,13140.269999999999,-12328.38
28246.905,1336.185,-4641.165,-10655.19,-21300.975,-49251.104999999996,13135.365,-12320.055
28262.114999999998,1347.2549999999999,-4628.295,-10631.025,-21278.204999999998,-49216.14,13135.005,-12312.225
28255.41,1332.945,-4648.7699999999995,-10624.05,-21265.739999999998,-49199.49,13131.269999999999,-12332.07
28271.969999999998,1342.62,-4651.245,-10644.705,-21295.934999999998,-49249.89,13138.064999999999,-12321.404999999999
28303.155,1367.82,-4638.915,-10677.555,-21338.19,-49293.27,13148.865,-12291.615
28313.684999999998,1370.2949999999998,-4634.054999999999,-10678.994999999999,-21348.45,-49302.045,13139.64,-12290.49
28311.48,1362.87,-4627.08,-10644.705,-21310.02,-49261.814999999995,13139.414999999999,-12296.385
28277.594999999998,1324.08,-4648.23,-10603.17,-21255.524999999998,-49199.265,13127.85,-12327.525
28242.719999999998,1287.18,-4670.01,-10578.42,-21217.77,-49164.075,13118.805,-12353.039999999999
28246.815,1291.2749999999999,-4662.99,-10586.115,-21224.52,-49221.494999999995,13131.63,-12340.664999999999
28277.504999999997,1319.805,-4643.415,-10603.305,-21252.195,-49274.415,13143.33,-12309.119999999999
28300.004999999997,1330.695,-4643.28,-10631.025,-21285.675,-49287.284999999996,13138.019999999999,-12298.68
28329.075,1344.78,-4632.66,-10638.09,-21298.995,-49275.765,13139.955,-12284.73
28350.855,1353.51,-4623.3,-10625.085,-21288.465,-49241.205,13134.42,-12282.164999999999
28345.454999999998,1341.225,-4628.5199999999995,-10614.824999999999,-21273.885,-49197.869999999995,13130.414999999999,-12300.615
28330.11,1320.7949999999998,-4640.49,-10612.664999999999,-21263.219999999998,-49161.24,13127.715,-12316.095
28330.92,1322.325,-4631.264999999999,-10604.43,-21266.415,-49161.689999999995,13132.529999999999,-12309.705
28305.36,1300.68,-4645.215,-10606.32,-21257.55,-49151.564999999995,13116.734999999999,-12331.845
28286.414999999997,1286.55,-4649.49,-10590.66,-21225.69,-49118.58,13113.0,-12343.005
28288.395,1289.2949999999998,-4646.115,-10593.99,-21230.1,-49133.115,13116.644999999999,-12335.715
28314.719999999998,1311.7949999999998,-4632.21,-10605.15,-21251.43,-49176.045,13123.26,-12309.975
28341.36,1326.1499999999999,-4624.245,-10609.965,-21267.0,-49210.38,13124.835,-12294.359999999999
28363.05,1328.2649999999999,-4626.764999999999,-10614.42,-21274.469999999998,-49220.82,13126.455,-12285.765
28376.55,1325.52,-4627.349999999999,-10599.615,-21254.13,-49188.015,13128.795,-12285.81
28361.475,1304.415,-4647.014999999999,-10609.695,-21249.225,-49161.915,13126.59,-12307.455
28359.629999999997,1305.585,-4640.625,-10608.255,-21250.125,-49155.119999999995,13129.605,-12306.285
28368.225,1312.605,-4631.04,-10603.035,-21253.005,-49159.439999999995,13123.17,-12295.035
28354.905,1301.94,-4634.1449999999995,-10595.115,-21246.12,-49151.88,13115.789999999999,-12298.904999999999
28344.149999999998,1298.655,-4637.79,-10611.315,-21267.765,-49166.28,13122.945,-12294.855
28349.73,1310.3999999999999,-4623.48,-10608.39,-21268.665,-49173.435,13114.439999999999,-12292.47
28356.48,1315.125,-4615.29,-10596.015,-21254.13,-49170.96,13120.425,-12290.984999999999
28375.605,1318.59,-4613.535,-10582.515,-21234.015,-49155.75,13131.045,-12277.529999999999
