ch_0,ch_1,ch_2,ch_3,ch_4,ch_5,ch_6,ch_7
-41307.299999999996,-59726.97,-40504.905,-54300.195,-53472.555,-47789.28,73738.215,-46294.83
-41313.915,-59762.43,-40536.765,-54323.1,-53429.579999999994,-47778.39,73596.915,-46282.814999999995
-41301.765,-59772.689999999995,-40552.29,-54339.57,-53355.465,-47778.93,73509.25499999999,-46265.939999999995
-41315.265,-59798.924999999996,-40580.369999999995,-54374.265,-53333.505,-47821.455,73463.76,-46273.095
-41328.314999999995,-59827.68,-40611.869999999995,-54401.13,-53265.869999999995,-47836.89,73459.98,-46278.585
-41366.025,-59879.52,-40666.005,-54453.24,-53182.619999999995,-47886.57,73505.34,-46301.534999999996
-41326.064999999995,-59811.03,-40604.939999999995,-54406.305,-53239.095,-47927.564999999995,73429.965,-46293.165
-41314.095,-59788.53,-40583.744999999995,-54382.454999999994,-53362.755,-47811.689999999995,73239.165,-46292.13
-41322.6,-59777.055,-40553.685,-54331.2,-53353.89,-47635.335,73016.45999999999,-46304.909999999996
-41260.14,-59687.28,-40463.46,-54248.895,-53338.77,-47589.93,72729.36,-46278.09
-41170.994999999995,-59576.085,-40359.735,-54164.97,-53369.549999999996,-47606.354999999996,72395.145,-46230.299999999996
-41134.545,-59551.74,-40334.265,-54136.305,-53305.02,-47670.165,72130.14,-46200.24
-41147.325,-59581.35,-40352.58,-54145.215,-53192.564999999995,-47666.205,71941.185,-46195.064999999995
-41137.965,-59600.43,-40388.445,-54187.244999999995,-53137.395,-47647.755,71793.675,-46182.555
-41145.525,-59659.155,-40465.89,-54269.1,-53086.95,-47698.29,71751.15,-46176.255
-41178.465,-59696.82,-40495.725,-54292.365,-53004.015,-47692.71,71756.235,-46185.165
-41199.659999999996,-59662.575,-40439.97,-54229.365,-53016.03,-47601.045,71695.125,-46228.229999999996
-41194.395,-59619.915,-40385.88,-54167.22,-53096.49,-47630.159999999996,71570.7,-46256.22
-41132.205,-59574.6,-40349.115,-54138.15,-53132.445,-47671.424999999996,71432.91,-46213.695
-41091.299999999996,-59545.619999999995,-40339.439999999995,-54161.009999999995,-53205.93,-47716.29,71280.27,-46172.475
-41093.685,-59534.28,-40325.985,-54149.715,-53254.17,-47701.935,71099.595,-46180.89
-41097.15,-59548.454999999994,-40325.67,-54123.704999999994,-53203.005,-47778.975,70981.47,-46179.405
-41116.725,-59618.07,-40395.645,-54187.56,-53135.28,-47640.735,70949.7,-46171.755
-41166.945,-59684.67,-40463.64,-54241.515,-53104.905,-47536.875,70966.215,-46208.295
-41203.845,-59730.615,-40511.115,-54291.24,-53071.829999999994,-47626.11,71069.12999999999,-46241.189999999995
-41296.049999999996,-59845.32,-40609.215,-54355.005,-52986.78,-47556.45,71233.11,-46304.1
-41294.79,-59818.545,-40590.674999999996,-54352.979999999996,-53032.32,-47501.145,71296.83,-46323.945
-41257.439999999995,-59756.445,-40540.275,-54323.549999999996,-53173.215,-47581.244999999995,71258.08499999999,-46311.705
-41254.47,-59756.174999999996,-40539.915,-54319.32,-53244.314999999995,-47610.72,71211.95999999999,-46309.229999999996
-41231.744999999995,-59713.695,-40492.17,-54274.634999999995,-53299.215,-47635.695,71103.555,-46301.895
-41151.78,-59614.02,-40408.83,-54217.53,-53376.21,-47654.1,70934.4,-46257.119999999995
-41138.28,-59635.755,-40440.915,-54244.619999999995,-53353.17,-47635.515,70838.01,-46240.83
-41136.299999999996,-59654.744999999995,-40452.255,-54245.34,-53268.165,-47627.775,70803.72,-46231.11
-41151.689999999995,-59666.445,-40455.27,-54259.74,-53242.604999999996,-47643.705,70811.81999999999,-46233.494999999995
-41190.299999999996,-59717.79,-40510.215,-54308.43,-53195.49,-47634.525,70888.59,-46259.415
-41281.38,-59822.055,-40591.53,-54355.634999999995,-53113.14,-47634.165,71025.12,-46319.04
-41272.155,-59771.744999999995,-40540.365,-54313.155,-53155.034999999996,-47632.59,71044.515,-46335.645
-41221.619999999995,-59700.645,-40489.92,-54299.7,-53296.29,-47684.744999999995,70959.285,-46311.479999999996
-41217.03,-59704.335,-40490.28,-54297.045,-53347.185,-47690.325,70863.795,-46305.99
-41180.085,-59661.09,-40447.935,-54250.244999999995,-53365.095,-47652.615,70703.055,-46284.795
-41132.025,-59601.78,-40392.854999999996,-54209.835,-53421.659999999996,-47652.705,70504.65,-46255.77
-41152.229999999996,-59632.47,-40414.229999999996,-54215.055,-53372.159999999996,-47633.22,70373.06999999999,-46268.055
-41159.61,-59665.725,-40443.795,-54219.015,-53262.045,-47613.915,70309.845,-46269.45
-41150.43,-59693.715,-40493.34,-54286.92,-53242.604999999996,-47693.07,70301.97,-46248.75
-41161.994999999995,-59717.43,-40515.84,-54310.814999999995,-53192.79,-47746.979999999996,70346.11499999999,-46250.1
-41202.63,-59763.6,-40563.99,-54358.74,-53116.784999999996,-47765.295,70448.535,-46283.939999999995
-41229.09,-59766.345,-40555.845,-54347.22,-53145.63,-47735.64,70467.48,-46314.72
-41220.0,-59748.39,-40542.93,-54342.54,-53264.52,-47681.189999999995,70366.36499999999,-46311.795
-41231.79,-59753.79,-40543.38,-54344.61,-53316.854999999996,-47578.5,70245.22499999999,-46319.534999999996
-41218.155,-59716.259999999995,-40509.405,-54322.335,-53357.67,-47632.14,70079.58,-46322.64
-41176.665,-59645.07,-40435.064999999995,-54250.424999999996,-53405.1,-47672.64,69848.685,-46308.689999999995
-41122.395,-59618.835,-40414.86,-54223.604999999996,-53353.17,-47671.74,69654.375,-46262.34
-41135.805,-59665.365,-40447.439999999995,-54245.744999999995,-53249.31,-47594.564999999995,69550.425,-46253.88
-41140.619999999995,-59689.53,-40475.25,-54281.159999999996,-53208.134999999995,-47620.439999999995,69493.41,-46247.13
-41169.915,-59726.7,-40511.924999999996,-54320.985,-53164.53,-47646.765,69502.545,-46265.4
-41243.76,-59810.399999999994,-40583.744999999995,-54358.875,-53063.369999999995,-47595.015,69559.425,-46320.299999999996
-41254.29,-59801.04,-40576.14,-54344.159999999996,-53071.155,-47597.4,69532.245,-46348.2
-41194.89,-59714.595,-40506.975,-54312.03,-53208.674999999996,-47666.295,69384.375,-46320.615
-41175.45,-59687.46,-40474.125,-54279.225,-53251.38,-47628.494999999995,69222.06,-46307.97
-41159.475,-59667.21,-40453.65,-54256.454999999994,-53276.715,-47593.665,69065.595,-46301.895
-41087.115,-59576.04,-40374.09,-54192.555,-53325.45,-47577.195,68836.36499999999,-46265.625
-41080.095,-59595.795,-40394.79,-54222.03,-53300.43,-47607.119999999995,68661.315,-46239.615
-41094.314999999995,-59624.055,-40419.99,-54252.045,-53231.939999999995,-47669.13,68569.425,-46239.39
-41126.715,-59663.115,-40448.52,-54256.14,-53161.155,-47638.17,68519.7,-46264.994999999995
-41169.195,-59715.899999999994,-40483.395,-54255.465,-53069.67,-47600.729999999996,68543.01,-46290.78
-41220.585,-59791.185,-40561.92,-54336.735,-52984.53,-47579.174999999996,68639.31,-46330.11
-41203.799999999996,-59749.47,-40532.67,-54331.2,-53020.215,-47586.825,68640.705,-46339.38
-41167.665,-59684.13,-40471.92,-54286.244999999995,-53143.11,-47617.155,68521.545,-46328.534999999996
-41170.635,-59690.07,-40474.799999999996,-54266.805,-53146.619999999995,-47580.165,68392.395,-46335.555
-41146.424999999996,-59649.435,-40441.365,-54254.97,-53185.905,-47627.505,68226.56999999999,-46342.979999999996
-41101.74,-59605.155,-40404.104999999996,-54226.215,-53234.82,-47628.405,68013.98999999999,-46307.384999999995
-41087.52,-59617.35,-40414.86,-54223.38,-53172.945,-47586.689999999995,67850.685,-46267.02
-41113.845,-59676.119999999995,-40469.939999999995,-54273.195,-53090.82,-47567.07,67801.95,-46276.695
-41110.47,-59681.024999999994,-40480.02,-54297.18,-53064.765,-47619.99,67798.125,-46274.67
-41161.365,-59747.625,-40543.335,-54352.665,-53013.42,-47660.04,67887.63,-46309.32
-41200.515,-59790.78,-40587.39,-54384.84,-52933.634999999995,-47642.625,68014.89,-46345.32
-41230.619999999995,-59802.615,-40588.65,-54373.095,-52960.275,-47614.32,68080.05,-46382.625
-41225.354999999996,-59778.54,-40563.54,-54360.27,-53078.13,-47654.729999999996,68034.285,-46388.43
-41225.4,-59768.549999999996,-40554.045,-54358.829999999994,-53146.079999999994,-47660.759999999995,67970.25,-46390.68
-41185.665,-59712.524999999994,-40501.665,-54307.89,-53181.99,-47602.979999999996,67836.735,-46379.07
-41122.665,-59637.149999999994,-40434.75,-54251.82,-53246.025,-47626.38,67656.87,-46341.27
-41093.955,-59629.14,-40432.814999999995,-54247.905,-53228.744999999995,-47650.32,67529.16,-46307.744999999995
-41106.645,-59670.18,-40481.82,-54303.345,-53176.32,-47654.235,67488.255,-46306.17
-41131.215,-59701.095,-40509.0,-54333.585,-53165.79,-47662.604999999996,67482.63,-46326.825
-41142.375,-59733.18,-40541.31,-54354.465,-53114.715,-47659.814999999995,67528.845,-46339.965
-41206.68,-59822.145,-40624.92,-54426.24,-53044.29,-47657.295,67643.45999999999,-46376.865
-41254.2,-59813.64,-40586.49,-54380.744999999995,-53064.0,-47597.04,67654.845,-46420.244999999995
-41245.064999999995,-59777.055,-40554.36,-54359.595,-53176.409999999996,-47591.685,67555.305,-46437.479999999996
-41186.52,-59703.03,-40485.645,-54304.335,-53232.345,-47708.145,67417.11,-46414.665
-41089.994999999995,-59598.945,-40398.345,-54236.97,-53285.085,-47846.97,67225.68,-46357.424999999996
-41050.935,-59577.884999999995,-40379.715,-54220.365,-53374.905,-47845.35,67004.235,-46309.409999999996
-41081.265,-59624.055,-40415.939999999995,-54240.165,-53339.265,-47603.564999999995,66811.005,-46307.97
-41090.265,-59646.869999999995,-40436.505,-54253.35,-53245.485,-47457.09,66693.015,-46319.67
-41090.895,-59655.465,-40448.07,-54258.93,-53180.729999999996,-47449.935,66624.39,-46327.005
-41119.74,-59706.72,-40499.415,-54297.27,-53110.755,-47496.6,66630.42,-46346.085
-41185.125,-59801.715,-40590.135,-54372.24,-53040.915,-47520.854999999996,66718.755,-46378.395
-41187.42,-59771.295,-40557.555,-54355.634999999995,-53090.549999999996,-47535.705,66721.23,-46395.405
-41174.865,-59734.485,-40527.314999999995,-54339.299999999996,-53233.965,-47578.59,66626.145,-46401.93
-41157.225,-59717.25,-40517.82,-54336.689999999995,-53306.1,-47603.205,66517.605,-46391.895
-41109.615,-59659.74,-40466.07,-54289.53,-53362.215,-47609.729999999996,66357.63,-46364.939999999995
-41093.415,-59645.115,-40451.58,-54267.299999999996,-53439.345,-47603.205,66175.245,-46350.27
-41064.39,-59625.54,-40430.43,-54244.71,-53416.439999999995,-47564.325,66014.91,-46324.89
-41070.195,-59643.54,-40441.994999999995,-54260.28,-53342.64,-47575.395,65949.03,-46319.85
-41095.35,-59675.04,-40459.725,-54269.64,-53302.634999999995,-47573.685,65923.83,-46333.17
-41124.15,-59721.84,-40509.854999999996,-54315.945,-53247.465,-47587.77,65967.39,-46349.145
-41168.835,-59787.54,-40577.22,-54377.28,-53168.265,-47591.729999999996,66063.285,-46374.795
-41192.28,-59789.655,-40577.805,-54378.494999999995,-53185.95,-47563.695,66077.81999999999,-46403.775
-41176.619999999995,-59748.795,-40552.064999999995,-54375.255,-53310.555,-47617.965,65970.58499999999,-46411.47
-41146.38,-59713.064999999995,-40521.645,-54354.24,-53361.045,-47639.924999999996,65827.89,-46396.259999999995
-41090.445,-59627.655,-40425.435,-54267.39,-53383.814999999995,-47636.1,65620.26,-46367.729999999996
-41053.275,-59568.84,-40354.65,-54186.525,-53410.365,-47611.619999999995,65375.729999999996,-46346.67
-41036.445,-59587.02,-40383.0,-54205.604999999996,-53357.67,-47553.659999999996,65183.354999999996,-46324.305
-41039.28,-59633.055,-40434.795,-54251.954999999994,-53274.284999999996,-47522.52,65083.229999999996,-46313.955
-41066.729999999996,-59685.39,-40493.205,-54307.53,-53242.335,-47586.015,65051.1,-46317.869999999995
-41111.28,-59744.744999999995,-40547.475,-54349.064999999995,-53175.96,-47575.935,65084.579999999994,-46347.39
-41133.555,-59784.299999999996,-40597.515,-54394.965,-53084.835,-47550.195,65179.439999999995,-46366.38
-41136.885,-59774.625,-40592.655,-54395.009999999995,-53115.525,-47572.244999999995,65227.32,-46388.655
-41144.625,-59730.119999999995,-40528.17,-54343.35,-53230.905,-47600.595,65151.72,-46406.475
-41157.0,-59722.335,-40509.09,-54334.305,-53289.854999999996,-47607.075,65059.424999999996,-46411.65
-41125.229999999996,-59686.829999999994,-40476.96,-54309.195,-53329.229999999996,-47594.61,64913.13,-46395.18
-41040.405,-59592.42,-40392.54,-54241.74,-53385.479999999996,-47608.515,64703.61,-46340.055
-41024.744999999995,-59606.685,-40408.83,-54232.695,-53328.465,-47596.275,64551.195,-46312.965
-41065.244999999995,-59683.814999999995,-40488.299999999996,-54293.715,-53224.515,-47598.03,64500.57,-46329.57
-41092.244999999995,-59720.354999999996,-40527.225,-54335.564999999995,-53187.255,-47591.865,64478.924999999996,-46352.07
-41111.685,-59747.805,-40552.74,-54364.77,-53118.945,-47540.655,64507.545,-46369.89
-41134.049999999996,-59777.009999999995,-40592.07,-54431.909999999996,-53052.975,-47605.14,64604.384999999995,-46385.955
-41162.22,-59769.314999999995,-40564.125,-54390.42,-53067.06,-47668.545,64632.104999999996,-46430.82
-41151.869999999995,-59726.384999999995,-40506.479999999996,-54307.89,-53137.845,-47743.604999999996,64514.7,-46448.865
-41103.99,-59683.725,-40482.0,-54307.305,-53182.395,-47716.064999999995,64376.909999999996,-46409.985
-41098.635,-59695.155,-40504.5,-54326.564999999995,-53213.49,-47593.259999999995,64215.72,-46404.99
-41061.465,-59651.549999999996,-40465.71,-54293.13,-53241.21,-47526.525,63992.295,-46387.034999999996
-41012.549999999996,-59610.6,-40426.02,-54261.765,-53200.35,-47624.625,63815.445,-46346.174999999996
-41055.39,-59674.14,-40473.314999999995,-54283.905,-53108.909999999996,-47666.43,63756.27,-46364.49
-41091.57,-59719.77,-40516.335,-54319.454999999994,-53082.494999999995,-47579.4,63731.159999999996,-46387.305
-41124.915,-59764.545,-40556.97,-54364.454999999994,-53033.895,-47469.015,63767.924999999996,-46409.58
-41175.99,-59836.634999999995,-40629.465,-54425.34,-52957.845,-47514.509999999995,63882.63,-46447.604999999996
-41186.88,-59823.63,-40611.869999999995,-54401.31,-52973.369999999995,-47538.36,63918.945,-46471.5
-41173.515,-59777.595,-40569.255,-54375.479999999996,-53101.755,-47555.595,63834.435,-46480.59
-41127.615,-59713.11,-40510.665,-54328.77,-53153.055,-47525.939999999995,63704.835,-46458.81
-41072.04,-59658.704999999994,-40465.665,-54297.314999999995,-53203.68,-47580.659999999996,63547.47,-46416.6
-41030.415,-59614.965,-40424.085,-54258.39,-53268.075,-47574.134999999995,63341.145,-46380.06
-41012.369999999995,-59611.229999999996,-40420.08,-54250.244999999995,-53243.775,-47546.595,63166.14,-46356.795
-41036.985,-59655.915,-40455.765,-54277.784999999996,-53164.619999999995,-47535.795,63084.06,-46361.97
-41056.695,-59688.72,-40493.34,-54317.655,-53137.215,-47569.455,63045.585,-46374.165
-41081.4,-59728.77,-40532.4,-54341.415,-53078.354999999996,-47559.195,63053.189999999995,-46388.61
-41142.96,-59815.125,-40613.939999999995,-54405.54,-53000.325,-47561.85,63132.255,-46428.345
-41150.655,-59799.24,-40594.814999999995,-54391.77,-53012.564999999995,-47551.814999999995,63131.534999999996,-46447.38
-41144.67,-59759.505,-40559.4,-54374.579999999994,-53136.854999999996,-47589.479999999996,63016.695,-46456.83
-41117.85,-59712.165,-40516.65,-54339.119999999995,-53179.604999999996,-47574.134999999995,62860.68,-46447.515
-41067.674999999996,-59650.02,-40470.345,-54311.4,-53223.659999999996,-47610.72,62672.399999999994,-46424.025
