ch_0,ch_1,ch_2,ch_3,ch_4,ch_5,ch_6,ch_7
-6189.075,-32283.989999999998,7409.34,-11166.705,4204.889999999999,-23315.67,-1683.7649999999999,13322.16
-6205.7699999999995,-32293.664999999997,7445.205,-11144.789999999999,4223.5199999999995,-23296.725,-1689.705,13308.615
-6213.24,-32279.039999999997,7477.965,-11140.244999999999,4217.3099999999995,-23292.495,-1692.855,13306.859999999999
-6226.29,-32301.809999999998,7468.2,-11141.369999999999,4220.1449999999995,-23283.495,-1690.3799999999999,13303.845
-6203.34,-32310.36,7441.245,-11137.904999999999,4236.974999999999,-23261.579999999998,-1677.1499999999999,13319.1
-6187.905,-32371.335,7379.235,-11156.13,4229.865,-23261.265,-1671.3,13330.755
-6172.245,-32415.795,7356.78,-11142.855,4260.51,-23222.34,-1655.82,13351.14
-6179.264999999999,-32424.3,7364.07,-11154.06,4233.285,-23244.524999999998,-1651.6799999999998,13351.14
-6164.37,-32379.21,7407.045,-11128.545,4250.61,-23227.559999999998,-1653.7949999999998,13354.064999999999
-6174.224999999999,-32378.67,7393.41,-11144.97,4242.51,-23227.695,-1662.7949999999998,13343.31
-6180.075,-32368.14,7383.915,-11171.25,4205.88,-23262.434999999998,-1673.37,13335.164999999999
-6186.24,-32335.515,7407.405,-11161.08,4212.495,-23257.89,-1681.695,13326.255
-6211.26,-32325.704999999998,7410.554999999999,-11166.074999999999,4210.695,-23256.675,-1693.08,13304.43
-6222.915,-32330.745,7416.179999999999,-11164.275,4211.865,-23252.715,-1694.475,13302.99
-6216.21,-32323.815,7433.639999999999,-11152.619999999999,4216.95,-23248.079999999998,-1688.355,13312.125
-6233.175,-32365.754999999997,7428.33,-11148.615,4234.005,-23220.945,-1687.905,13301.144999999999
-6234.57,-32379.3,7420.41,-11155.814999999999,4216.32,-23243.67,-1703.655,13292.369999999999
-6235.155,-32384.789999999997,7437.42,-11134.8,4234.905,-23223.69,-1709.82,13290.345
-6201.54,-32371.469999999998,7435.3949999999995,-11136.645,4236.66,-23209.2,-1684.845,13324.68
-6207.344999999999,-32394.51,7377.389999999999,-11167.02,4221.63,-23210.415,-1677.5549999999998,13325.535
-6227.865,-32368.184999999998,7364.474999999999,-11156.805,4257.63,-23167.395,-1678.095,13311.9
-6232.41,-32335.829999999998,7409.5199999999995,-11180.115,4203.585,-23222.969999999998,-1688.355,13306.41
-6218.6849999999995,-32357.07,7447.7699999999995,-11152.664999999999,4220.505,-23215.364999999998,-1684.26,13317.119999999999
-6214.275,-32416.829999999998,7395.884999999999,-11136.779999999999,4272.12,-23161.86,-1678.8149999999998,13321.305
-6192.224999999999,-32401.26,7356.78,-11119.095,4280.985,-23162.219999999998,-1680.705,13330.125
-6194.745,-32399.055,7380.495,-11095.47,4281.21,-23177.07,-1687.77,13325.715
-6186.15,-32353.965,7423.0199999999995,-11105.324999999999,4250.88,-23209.829999999998,-1690.9199999999998,13334.4
-6177.915,-32364.225,7415.19,-11117.609999999999,4239.72,-23215.725,-1679.8049999999998,13349.43
-6171.255,-32358.914999999997,7411.139999999999,-11112.48,4259.5199999999995,-23190.614999999998,-1670.895,13357.619999999999
-6181.605,-32345.414999999997,7415.594999999999,-11123.189999999999,4253.67,-23186.43,-1675.4399999999998,13347.045
-6180.84,-32337.539999999997,7414.065,-11134.8,4240.665,-23194.079999999998,-1676.79,13342.14
-6205.05,-32348.565,7406.46,-11134.529999999999,4238.01,-23200.155,-1695.645,13320.045
-6207.12,-32338.754999999997,7429.049999999999,-11112.93,4251.51,-23190.66,-1705.095,13314.24
-6221.745,-32335.649999999998,7446.0599999999995,-11100.914999999999,4252.86,-23193.585,-1718.865,13296.869999999999
-6221.115,-32369.985,7435.71,-11097.765,4261.95,-23175.719999999998,-1702.665,13313.25
-6218.01,-32410.53,7395.48,-11126.564999999999,4236.615,-23190.21,-1696.365,13324.41
-6210.179999999999,-32394.555,7372.844999999999,-11132.91,4239.405,-23185.98,-1698.57,13324.14
-6209.775,-32378.985,7390.08,-11130.48,4238.46,-23184.495,-1694.4299999999998,13325.085
-6209.1449999999995,-32369.309999999998,7399.304999999999,-11133.404999999999,4224.24,-23204.16,-1699.7849999999999,13323.285
-6231.6449999999995,-32372.91,7387.335,-11148.3,4212.36,-23220.09,-1722.195,13298.265
-6246.045,-32369.67,7382.61,-11152.664999999999,4219.605,-23209.515,-1724.715,13287.285
-6253.29,-32356.89,7388.415,-11156.4,4215.375,-23214.915,-1728.36,13279.365
-6258.465,-32343.614999999998,7394.085,-11150.82,4223.88,-23205.915,-1730.52,13274.685
-6240.915,-32355.0,7377.795,-11157.48,4217.13,-23212.665,-1720.845,13291.244999999999
-6233.355,-32382.809999999998,7368.884999999999,-11142.9,4236.615,-23199.12,-1713.915,13300.56
-6214.905,-32390.82,7374.87,-11122.109999999999,4253.805,-23192.01,-1705.995,13317.074999999999
-6205.7699999999995,-32355.18,7414.335,-11109.42,4256.595,-23194.305,-1705.365,13322.97
-6225.795,-32339.879999999997,7409.295,-11117.97,4249.215,-23198.175,-1713.915,13307.58
-6219.719999999999,-32359.23,7401.69,-11103.21,4265.37,-23181.165,-1704.24,13320.18
-6219.179999999999,-32409.405,7370.6849999999995,-11101.185,4270.455,-23175.405,-1700.415,13322.519999999999
-6207.255,-32404.094999999998,7353.63,-11116.215,4254.4349999999995,-23185.844999999998,-1704.105,13322.025
-6219.855,-32377.77,7343.1449999999995,-11136.645,4232.115,-23203.934999999998,-1715.22,13308.074999999999
-6246.179999999999,-32390.235,7333.11,-11136.195,4231.755,-23207.715,-1724.445,13291.74
-6233.804999999999,-32386.545,7334.235,-11123.01,4242.285,-23206.86,-1721.79,13299.75
-6216.795,-32380.875,7327.53,-11112.21,4263.21,-23187.195,-1707.2549999999999,13315.32
-6227.82,-32380.289999999997,7298.505,-11127.779999999999,4259.385,-23180.355,-1692.855,13313.205
-6241.95,-32354.64,7307.91,-11124.494999999999,4257.495,-23184.495,-1702.665,13295.835
-6239.88,-32352.614999999998,7308.719999999999,-11108.52,4264.47,-23183.145,-1710.45,13292.189999999999
-6203.115,-32335.469999999998,7334.955,-11074.095,4275.72,-23181.254999999997,-1699.965,13324.904999999999
-6177.69,-32342.489999999998,7289.91,-11085.119999999999,4273.335,-23177.52,-1689.885,13344.21
-6177.465,-32321.16,7248.735,-11106.09,4258.62,-23190.21,-1691.955,13338.855
-6190.875,-32303.835,7271.235,-11070.63,4284.764999999999,-23170.32,-1694.61,13331.88
-6211.035,-32344.515,7275.735,-11057.58,4287.555,-23172.12,-1689.075,13328.505
-6212.565,-32377.815,7262.73,-11048.13,4294.845,-23163.39,-1683.72,13332.555
-6213.69,-32386.995,7206.57,-11069.865,4282.875,-23165.73,-1684.8899999999999,13325.939999999999
-6206.58,-32380.335,7178.535,-11068.289999999999,4286.88,-23167.575,-1693.935,13323.779999999999
-6175.62,-32366.43,7170.615,-11048.49,4309.155,-23158.215,-1681.965,13346.55
-6142.905,-32314.725,7151.49,-11059.38,4294.3949999999995,-23185.215,-1675.62,13365.855
-6142.365,-32300.954999999998,7149.6449999999995,-11061.63,4288.095,-23203.665,-1673.9099999999999,13370.31
-6165.63,-32314.59,7140.6449999999995,-11066.984999999999,4283.595,-23213.565,-1685.8799999999999,13349.654999999999
-6161.58,-32290.425,7160.49,-11042.595,4313.655,-23184.27,-1680.57,13350.51
-6173.73,-32269.094999999998,7154.594999999999,-11060.73,4301.73,-23188.32,-1684.7549999999999,13336.695
-6190.29,-32250.465,7157.79,-11068.199999999999,4302.72,-23166.855,-1675.575,13334.984999999999
-6221.07,-32284.8,7156.304999999999,-11064.42,4291.65,-23178.96,-1677.6899999999998,13324.859999999999
-6198.12,-32348.699999999997,7145.639999999999,-11050.38,4289.67,-23189.85,-1674.495,13341.914999999999
-6163.155,-32365.395,7134.12,-11023.83,4301.37,-23188.545,-1674.405,13357.71
-6156.855,-32335.875,7093.889999999999,-11042.685,4283.01,-23209.515,-1686.2849999999999,13350.779999999999
-6144.84,-32317.245,7085.429999999999,-11037.105,4295.88,-23195.79,-1678.8149999999998,13363.56
-6131.115,-32307.66,7078.995,-11027.52,4303.035,-23183.01,-1662.84,13379.085
-6144.389999999999,-32304.105,7061.94,-11037.869999999999,4290.345,-23181.39,-1668.87,13367.07
-6161.49,-32309.01,7039.665,-11044.35,4285.26,-23179.32,-1673.6399999999999,13351.32
-6141.87,-32271.795,7035.705,-11017.935,4316.805,-23157.27,-1667.25,13361.894999999999
-6134.94,-32240.204999999998,7023.0599999999995,-11004.66,4331.88,-23149.8,-1672.02,13360.005
-6153.48,-32255.594999999998,6989.535,-11010.06,4327.11,-23162.399999999998,-1673.82,13347.314999999999
-6171.165,-32306.985,6951.0599999999995,-11019.869999999999,4321.125,-23171.579999999998,-1663.29,13348.394999999999
-6157.8,-32312.43,6928.0199999999995,-11022.345,4316.715,-23174.55,-1658.2949999999998,13360.904999999999
-6145.92,-32298.434999999998,6915.42,-11014.92,4322.43,-23161.59,-1651.86,13370.22
-6143.94,-32309.64,6903.855,-11017.619999999999,4322.16,-23148.54,-1647.54,13374.18
-6113.5199999999995,-32287.995,6905.655,-10999.71,4329.63,-23146.739999999998,-1641.735,13394.16
-6123.195,-32291.055,6864.255,-11003.939999999999,4336.155,-23141.79,-1643.8049999999998,13388.31
-6122.969999999999,-32282.28,6839.639999999999,-11011.455,4333.23,-23144.94,-1642.2749999999999,13387.275
-6129.675,-32255.864999999998,6841.755,-11011.275,4328.865,-23150.52,-1651.455,13376.654999999999
-6162.165,-32249.835,6836.67,-11025.99,4311.855,-23164.515,-1657.395,13356.945
-6182.82,-32254.065,6835.5,-11035.71,4308.03,-23166.45,-1659.0149999999999,13347.269999999999
-6175.889999999999,-32254.02,6831.224999999999,-11036.699999999999,4312.755,-23158.395,-1654.29,13352.535
-6145.695,-32280.975,6816.42,-11011.545,4336.29,-23141.16,-1647.72,13372.47
-6125.715,-32320.664999999997,6802.335,-10999.26,4337.82,-23152.23,-1651.725,13382.01
-6089.219999999999,-32313.51,6807.375,-10972.664999999999,4352.445,-23151.195,-1639.665,13413.465
-6080.715,-32317.02,6790.815,-10955.205,4370.58,-23133.42,-1628.82,13423.41
-6107.94,-32293.574999999997,6779.25,-10988.865,4345.0199999999995,-23147.594999999998,-1645.9199999999998,13392.81
-6121.17,-32221.8,6818.085,-11000.34,4329.675,-23151.375,-1643.58,13387.814999999999
-6190.605,-32199.344999999998,6814.9349999999995,-11050.515,4306.635,-23146.11,-1638.225,13357.215
-6253.245,-32290.649999999998,6780.6449999999995,-11083.005,4307.13,-23126.129999999997,-1628.685,13332.96
-6237.45,-32426.954999999998,6743.34,-11029.725,4366.755,-23082.48,-1620.27,13344.345
-6133.005,-32463.18,6678.0,-10977.3,4395.599999999999,-23084.055,-1612.08,13393.845
-6076.98,-32319.945,6715.17,-10952.369999999999,4351.005,-23162.895,-1660.8149999999998,13384.26
-6043.365,-32211.225,6776.955,-10939.14,4326.57,-23204.879999999997,-1680.3899999999999,13391.369999999999
-6030.405,-32207.399999999998,6768.63,-10944.539999999999,4334.445,-23188.5,-1659.78,13417.425
-6048.09,-32226.434999999998,6740.594999999999,-10942.064999999999,4349.16,-23159.475,-1639.215,13416.39
-6084.0,-32245.965,6709.86,-10950.119999999999,4348.845,-23147.594999999998,-1642.905,13389.39
-6078.915,-32225.399999999998,6720.795,-10938.105,4358.5199999999995,-23133.645,-1636.0649999999998,13394.475
-6099.075,-32223.87,6710.759999999999,-10952.64,4347.315,-23134.454999999998,-1642.23,13377.689999999999
-6122.025,-32241.69,6695.46,-10972.89,4333.95,-23131.26,-1647.945,13357.394999999999
-6105.195,-32280.524999999998,6688.349999999999,-10967.355,4337.6849999999995,-23125.23,-1635.6599999999999,13379.445
-6094.125,-32307.48,6652.349999999999,-10973.34,4328.235,-23134.184999999998,-1638.855,13380.57
-6099.929999999999,-32284.844999999998,6646.995,-10965.51,4323.51,-23142.6,-1651.05,13371.21
-6093.179999999999,-32275.71,6671.7,-10943.414999999999,4336.065,-23130.495,-1646.145,13380.255
-6088.59,-32294.34,6636.15,-10949.984999999999,4347.224999999999,-23106.375,-1632.465,13387.994999999999
-6089.94,-32280.39,6648.344999999999,-10933.154999999999,4367.16,-23078.745,-1633.32,13378.455
-6101.6849999999995,-32268.105,6652.349999999999,-10940.58,4353.4349999999995,-23091.48,-1652.9399999999998,13354.695
-6105.24,-32249.969999999998,6665.085,-10952.55,4336.335,-23106.42,-1657.7549999999999,13350.465
-6109.65,-32251.815,6674.58,-10959.029999999999,4320.72,-23118.075,-1655.955,13354.695
-6107.58,-32293.89,6674.3099999999995,-10938.015,4340.97,-23094.045,-1648.3049999999998,13362.885
-6083.91,-32298.48,6656.445,-10929.869999999999,4344.84,-23090.265,-1638.225,13380.525
-6062.355,-32296.14,6589.575,-10937.295,4362.345,-23057.415,-1616.49,13399.244999999999
-6067.62,-32281.965,6566.804999999999,-10927.71,4374.18,-23034.329999999998,-1614.24,13393.035
-6061.905,-32262.39,6577.965,-10912.814999999999,4375.755,-23032.125,-1618.9199999999998,13390.154999999999
-6054.929999999999,-32252.625,6572.16,-10906.83,4375.62,-23035.274999999998,-1623.5549999999998,13393.439999999999
-6052.1849999999995,-32262.614999999998,6544.98,-10907.145,4380.345,-23024.925,-1614.33,13402.394999999999
-6069.105,-32278.68,6519.87,-10930.095,4363.605,-23034.015,-1624.59,13386.914999999999
-6087.33,-32271.57,6548.804999999999,-10949.22,4335.795,-23054.04,-1638.27,13361.625
-6110.639999999999,-32269.094999999998,6597.63,-10950.345,4331.835,-23054.489999999998,-1645.74,13346.775
-6122.115,-32273.594999999998,6642.0,-10951.83,4332.78,-23049.315,-1648.62,13341.285
-6124.05,-32295.555,6643.71,-10955.835,4321.215,-23062.454999999998,-1646.865,13343.67
-6106.005,-32305.32,6619.815,-10958.984999999999,4329.2699999999995,-23053.86,-1642.6799999999998,13352.984999999999
-6084.54,-32354.64,6580.259999999999,-10940.355,4349.745,-23039.01,-1628.865,13374.09
-6063.344999999999,-32362.335,6533.46,-10919.07,4361.445,-23044.32,-1639.7549999999999,13373.46
-6039.495,-32323.32,6552.719999999999,-10891.89,4389.12,-23027.76,-1635.165,13392.72
-6029.82,-32282.28,6607.304999999999,-10894.994999999999,4384.44,-23029.02,-1623.465,13405.185
-6042.78,-32291.414999999997,6637.139999999999,-10900.439999999999,4384.349999999999,-23022.585,-1627.02,13394.654999999999
-6067.44,-32323.635,6657.66,-10903.725,4378.724999999999,-23025.915,-1634.715,13374.675
-6067.755,-32318.504999999997,6657.21,-10909.755,4371.345,-23027.309999999998,-1635.57,13372.92
-6058.485,-32304.42,6667.469999999999,-10897.83,4375.62,-23021.91,-1635.975,13376.115
-6052.32,-32299.155,6706.9349999999995,-10878.705,4380.21,-23018.399999999998,-1630.08,13384.305
-6061.815,-32311.215,6700.005,-10892.88,4371.84,-23026.094999999998,-1634.6699999999998,13374.855
-6054.4349999999995,-32301.765,6691.7699999999995,-10906.74,4371.165,-23021.82,-1631.97,13378.904999999999
-6053.264999999999,-32283.27,6705.675,-10905.345,4371.615,-23017.905,-1632.465,13376.564999999999
-6081.57,-32285.204999999998,6721.335,-10889.369999999999,4383.135,-23003.415,-1630.4399999999998,13369.545
-6079.455,-32298.93,6708.105,-10876.545,4399.2,-22982.219999999998,-1611.3149999999998,13385.25
-6091.245,-32339.835,6641.235,-10906.695,4391.37,-22973.309999999998,-1609.74,13372.74
