ch_0,ch_1,ch_2,ch_3,ch_4,ch_5,ch_6,ch_7
28374.524999999998,-4334.94,-1972.3049999999998,-5710.7699999999995,-20094.48,-42635.655,11422.71,-12442.545
28375.605,-4333.365,-1969.6499999999999,-5709.195,-20090.07,-42635.835,11430.585,-12434.58
28363.5,-4342.1849999999995,-1975.9499999999998,-5708.969999999999,-20083.77,-42637.455,11425.005,-12443.175
28349.82,-4344.84,-1973.205,-5693.715,-20057.489999999998,-42623.549999999996,11431.305,-12445.38
28335.329999999998,-4347.36,-1972.35,-5690.429999999999,-20052.945,-42631.29,11433.15,-12447.855
28325.114999999998,-4353.389999999999,-1983.195,-5713.065,-20080.53,-42662.07,11435.175,-12442.59
28324.035,-4348.665,-1981.7549999999999,-5723.1449999999995,-20090.25,-42667.064999999995,11431.035,-12438.225
28327.95,-4338.72,-1972.62,-5720.67,-20090.07,-42663.465,11432.475,-12433.59
28326.105,-4339.3949999999995,-1970.73,-5717.5199999999995,-20087.46,-42655.32,11421.945,-12443.76
28331.055,-4338.585,-1970.46,-5713.514999999999,-20083.14,-42644.385,11429.324999999999,-12442.005
28334.204999999998,-4341.465,-1976.9399999999998,-5717.655,-20080.215,-42640.064999999995,11428.38,-12441.824999999999
28322.73,-4349.97,-1986.165,-5723.415,-20085.39,-42654.33,11416.77,-12451.949999999999
28318.635,-4347.9,-1986.3899999999999,-5731.38,-20097.63,-42670.619999999995,11417.355,-12446.189999999999
28317.6,-4341.0599999999995,-1979.46,-5728.545,-20095.38,-42667.29,11428.38,-12432.15
28307.835,-4340.205,-1971.0,-5716.304999999999,-20083.5,-42657.299999999996,11431.305,-12432.645
28289.385,-4346.595,-1968.03,-5702.175,-20068.11,-42651.765,11431.395,-12443.4
28276.829999999998,-4358.79,-1980.27,-5707.665,-20073.96,-42667.2,11431.035,-12448.574999999999
28277.594999999998,-4354.965,-1975.05,-5691.42,-20053.17,-42657.84,11431.619999999999,-12447.0
28278.719999999998,-4351.545,-1972.71,-5693.445,-20056.454999999998,-42659.415,11424.824999999999,-12451.23
28288.844999999998,-4339.755,-1962.72,-5693.13,-20058.57,-42660.27,11428.965,-12442.14
28299.465,-4332.15,-1961.28,-5702.67,-20070.54,-42673.725,11432.205,-12431.205
28294.155,-4337.19,-1969.0649999999998,-5711.49,-20081.43,-42688.215,11435.58,-12430.17
28277.414999999997,-4350.42,-1978.605,-5706.495,-20075.535,-42692.13,11429.505,-12439.664999999999
28272.329999999998,-4346.055,-1971.0449999999998,-5696.865,-20064.285,-42681.42,11436.84,-12432.015
28266.03,-4343.04,-1969.74,-5704.514999999999,-20072.204999999998,-42682.545,11437.38,-12427.154999999999
28248.704999999998,-4350.42,-1977.12,-5713.695,-20075.489999999998,-42678.945,11428.02,-12436.47
28238.355,-4349.07,-1973.115,-5715.405,-20079.719999999998,-42685.2,11430.945,-12440.52
28239.254999999997,-4346.37,-1971.855,-5716.215,-20085.03,-42705.854999999996,11440.755,-12432.645
28229.129999999997,-4357.485,-1983.1499999999999,-5716.98,-20081.52,-42706.395,11439.314999999999,-12439.664999999999
28211.445,-4368.87,-1987.11,-5705.1449999999995,-20066.67,-42678.585,11423.97,-12466.08
28205.325,-4370.849999999999,-1988.1,-5700.6449999999995,-20064.555,-42673.68,11424.015,-12469.005
28206.629999999997,-4363.155,-1980.855,-5698.215,-20064.87,-42680.25,11430.945,-12458.97
28209.78,-4355.055,-1974.4199999999998,-5697.045,-20061.225,-42680.115,11423.744999999999,-12452.895
28211.219999999998,-4344.57,-1962.1799999999998,-5687.505,-20046.87,-42663.104999999996,11431.619999999999,-12437.64
28200.42,-4348.3949999999995,-1966.77,-5696.955,-20053.17,-42665.985,11444.76,-12428.055
28187.82,-4351.05,-1968.975,-5705.594999999999,-20065.005,-42685.695,11440.215,-12429.27
28177.155,-4354.065,-1969.965,-5707.8,-20068.605,-42689.115,11434.365,-12437.865
28186.379999999997,-4344.885,-1965.5549999999998,-5714.28,-20078.91,-42705.765,11446.064999999999,-12424.455
28179.585,-4356.495,-1982.655,-5736.87,-20105.64,-42751.215,11442.779999999999,-12429.855
28182.015,-4355.639999999999,-1984.5449999999998,-5740.785,-20118.059999999998,-42780.015,11441.205,-12429.314999999999
28185.57,-4353.345,-1983.105,-5732.099999999999,-20108.565,-42772.635,11439.585,-12425.13
28181.969999999998,-4353.075,-1978.245,-5707.889999999999,-20072.88,-42732.99,11437.605,-12425.625
28174.004999999997,-4343.985,-1961.01,-5677.469999999999,-20034.405,-42691.905,11431.125,-12430.395
28143.585,-4357.845,-1966.725,-5667.84,-20018.295,-42674.895,11425.725,-12449.835
28125.495,-4366.889999999999,-1976.85,-5673.915,-20022.704999999998,-42681.195,11441.295,-12443.625
28110.69,-4369.455,-1979.5049999999999,-5688.179999999999,-20043.585,-42710.76,11437.47,-12442.095
28096.2,-4372.065,-1979.01,-5688.945,-20052.36,-42738.21,11438.055,-12444.705
28085.265,-4381.065,-1989.855,-5697.405,-20063.7,-42757.38,11443.904999999999,-12442.275
28088.954999999998,-4375.125,-1988.1899999999998,-5696.639999999999,-20068.335,-42762.465,11442.33,-12432.15
28090.664999999997,-4368.375,-1978.965,-5677.695,-20049.075,-42743.97,11434.185,-12434.22
28094.985,-4356.72,-1962.81,-5651.1449999999995,-20015.73,-42711.705,11434.455,-12433.275
28086.704999999998,-4361.805,-1972.08,-5661.2699999999995,-20022.524999999998,-42723.09,11447.279999999999,-12431.97
28076.039999999997,-4372.65,-1992.33,-5688.135,-20050.469999999998,-42757.74,11454.66,-12430.98
28082.43,-4360.68,-1983.915,-5680.08,-20045.79,-42766.784999999996,11466.585,-12413.52
28078.739999999998,-4358.295,-1980.36,-5668.965,-20037.195,-42775.83,11467.935,-12411.404999999999
28074.149999999998,-4360.724999999999,-1988.28,-5673.51,-20039.805,-42797.07,11463.48,-12413.16
28079.325,-4356.36,-1992.4199999999998,-5689.125,-20058.614999999998,-42835.095,11457.855,-12403.845
28085.309999999998,-4341.69,-1981.125,-5679.045,-20052.09,-42832.17,11457.404999999999,-12401.46
28082.61,-4346.1449999999995,-1989.0449999999998,-5668.92,-20041.29,-42822.72,11453.22,-12412.484999999999
28095.254999999997,-4339.08,-1989.09,-5654.969999999999,-20031.165,-42814.305,11459.88,-12407.805
28088.01,-4346.28,-1997.0549999999998,-5652.63,-20033.28,-42818.85,11451.15,-12425.445
28076.94,-4357.889999999999,-2011.9499999999998,-5656.905,-20034.765,-42812.369999999995,11449.484999999999,-12430.574999999999
28064.43,-4367.61,-2021.1299999999999,-5649.795,-20023.02,-42788.205,11450.52,-12434.445
28058.715,-4363.83,-2019.195,-5635.98,-20003.175,-42768.99,11453.895,-12427.199999999999
28061.01,-4353.705,-2015.235,-5629.005,-20003.445,-42794.325,11463.705,-12409.154999999999
28052.055,-4355.055,-2021.625,-5634.99,-20016.63,-42825.195,11462.085,-12404.789999999999
28051.289999999997,-4350.735,-2026.08,-5643.315,-20028.69,-42845.625,11457.045,-12397.904999999999
28051.335,-4342.275,-2019.465,-5633.865,-20025.495,-42852.555,11455.064999999999,-12397.545
28036.485,-4349.43,-2024.37,-5623.065,-20014.785,-42839.505,11440.35,-12419.64
28023.03,-4350.6449999999995,-2019.8249999999998,-5608.3949999999995,-19998.27,-42825.104999999996,11433.42,-12440.205
28020.555,-4343.04,-2010.78,-5596.38,-19990.17,-42817.545,11438.46,-12444.75
28021.68,-4344.345,-2020.185,-5611.005,-20009.43,-42845.939999999995,11439.72,-12435.84
28028.835,-4333.455,-2016.7649999999999,-5621.58,-20029.545,-42885.674999999996,11447.055,-12413.654999999999
28026.135,-4325.355,-2008.845,-5617.17,-20028.555,-42889.545,11442.914999999999,-12408.164999999999
28005.344999999998,-4341.915,-2029.77,-5632.38,-20042.73,-42894.27,11444.805,-12414.96
27987.48,-4361.535,-2053.755,-5654.7,-20065.545,-42912.045,11446.875,-12417.84
27992.879999999997,-4352.8949999999995,-2047.455,-5647.86,-20060.82,-42911.729999999996,11457.539999999999,-12400.92
27993.285,-4350.51,-2046.645,-5643.945,-20058.614999999998,-42915.24,11456.145,-12398.895
27995.535,-4352.535,-2052.99,-5650.29,-20066.67,-42919.47,11452.365,-12399.795
27981.989999999998,-4369.86,-2072.43,-5664.0599999999995,-20078.415,-42913.979999999996,11445.029999999999,-12416.22
27972.765,-4382.55,-2083.41,-5660.054999999999,-20071.575,-42903.585,11450.475,-12417.39
27966.78,-4381.5599999999995,-2076.795,-5631.57,-20037.465,-42867.72,11448.81,-12416.58
27957.195,-4382.28,-2076.66,-5624.73,-20030.175,-42882.84,11449.26,-12418.695
27952.335,-4382.82,-2083.9049999999997,-5652.945,-20067.165,-42964.83,11459.97,-12405.285
27949.274999999998,-4378.455,-2082.06,-5671.44,-20093.265,-42981.435,11461.14,-12400.02
27939.059999999998,-4384.98,-2090.79,-5685.48,-20112.12,-42976.575,11455.335,-12405.015
27945.045,-4377.87,-2077.38,-5655.465,-20080.755,-42939.99,11456.01,-12399.39
27931.5,-4395.24,-2085.48,-5625.99,-20038.454999999998,-42886.89,11446.605,-12418.154999999999
27917.325,-4419.99,-2104.74,-5608.44,-20007.809999999998,-42838.29,11448.404999999999,-12429.135
27909.719999999998,-4433.445,-2121.39,-5623.425,-20019.105,-42847.83,11441.115,-12439.89
27917.37,-4426.0199999999995,-2124.765,-5662.575,-20075.489999999998,-42907.86,11446.605,-12431.744999999999
27937.71,-4410.315,-2124.4049999999997,-5703.66,-20135.204999999998,-42967.439999999995,11466.945,-12401.1
27946.53,-4405.455,-2128.275,-5728.23,-20171.204999999998,-43010.909999999996,11469.869999999999,-12387.195
27954.09,-4392.945,-2111.13,-5703.344999999999,-20148.614999999998,-43004.79,11470.23,-12373.289999999999
27952.469999999998,-4390.83,-2098.08,-5654.07,-20089.8,-42953.985,11456.73,-12372.975
27919.71,-4418.955,-2112.48,-5622.84,-20036.745,-42894.405,11444.535,-12405.24
27897.21,-4431.42,-2123.595,-5638.545,-20050.605,-42898.365,11443.68,-12424.814999999999
27917.91,-4411.889999999999,-2112.5699999999997,-5656.815,-20079.719999999998,-42936.615,11452.185,-12403.845
27925.875,-4411.62,-2117.3849999999998,-5668.0199999999995,-20097.315,-42966.225,11451.734999999999,-12402.18
27936.405,-4402.17,-2106.585,-5647.455,-20087.954999999998,-42945.03,11451.375,-12402.09
27937.8,-4403.79,-2105.235,-5617.215,-20053.17,-42897.6,11455.695,-12405.465
27915.344999999998,-4425.974999999999,-2119.23,-5595.165,-20021.67,-42861.06,11446.38,-12427.47
27892.305,-4444.245,-2133.18,-5596.83,-20020.41,-42847.244999999995,11437.83,-12445.515
27892.079999999998,-4437.315,-2128.005,-5604.84,-20032.065,-42876.225,11451.375,-12433.275
27905.129999999997,-4420.17,-2121.66,-5621.715,-20059.515,-42920.595,11457.314999999999,-12413.925
27912.645,-4413.42,-2130.2999999999997,-5667.344999999999,-20121.344999999998,-42982.47,11462.13,-12398.445
27923.355,-4402.3949999999995,-2130.84,-5695.425,-20162.61,-43028.055,11471.76,-12380.039999999999
27933.48,-4392.585,-2124.315,-5683.275,-20162.52,-43036.424999999996,11471.85,-12366.945
27948.51,-4380.4349999999995,-2113.02,-5657.67,-20133.945,-43005.015,11469.51,-12356.64
27947.16,-4384.26,-2118.42,-5646.285,-20111.085,-42963.75,11457.135,-12369.914999999999
27927.09,-4395.0599999999995,-2119.59,-5615.594999999999,-20068.649999999998,-42909.345,11445.074999999999,-12403.8
27898.02,-4421.565,-2142.9449999999997,-5614.38,-20057.355,-42881.85,11444.895,-12428.955
27898.245,-4417.605,-2139.2999999999997,-5615.639999999999,-20066.445,-42879.465,11457.765,-12417.255
27890.504999999997,-4417.155,-2140.02,-5624.415,-20088.045,-42919.38,11464.38,-12412.71
27895.23,-4407.21,-2134.89,-5626.035,-20095.739999999998,-42952.229999999996,11477.25,-12394.395
27901.035,-4404.105,-2140.965,-5642.19,-20112.12,-42977.97,11478.555,-12379.814999999999
27901.125,-4398.84,-2133.1349999999998,-5634.36,-20111.535,-42981.57,11456.234999999999,-12384.81
27899.37,-4397.94,-2129.4449999999997,-5617.035,-20096.415,-42960.06,11453.13,-12390.93
27901.575,-4401.72,-2135.745,-5600.5199999999995,-20075.219999999998,-42930.27,11463.164999999999,-12390.48
27896.129999999997,-4409.37,-2144.79,-5599.53,-20072.024999999998,-42907.32,11462.355,-12403.664999999999
27899.055,-4407.389999999999,-2144.79,-5604.344999999999,-20078.28,-42899.49,11458.664999999999,-12405.689999999999
27901.079999999998,-4402.889999999999,-2145.1949999999997,-5615.955,-20097.63,-42928.47,11455.785,-12400.605
27901.44,-4397.67,-2140.02,-5615.91,-20105.19,-42957.63,11467.17,-12393.18
27893.969999999998,-4398.795,-2139.345,-5611.32,-20099.43,-42976.619999999995,11469.555,-12392.595
27894.78,-4394.205,-2134.125,-5597.82,-20088.855,-42981.435,11476.8,-12380.85
27885.87,-4405.59,-2145.375,-5601.195,-20095.605,-42968.295,11474.189999999999,-12383.055
27886.95,-4403.7,-2141.415,-5592.465,-20081.204999999998,-42939.09,11474.145,-12379.994999999999
27875.879999999997,-4418.82,-2155.59,-5599.53,-20084.805,-42936.525,11463.795,-12395.88
27884.655,-4412.565,-2153.475,-5608.9349999999995,-20095.649999999998,-42939.36,11459.52,-12395.025
27895.86,-4400.91,-2144.0699999999997,-5600.969999999999,-20087.19,-42927.39,11461.41,-12393.27
27901.079999999998,-4394.5199999999995,-2142.6749999999997,-5607.99,-20100.015,-42940.53,11455.289999999999,-12395.205
27904.86,-4389.48,-2139.12,-5600.34,-20096.145,-42938.325,11463.435,-12386.025
27894.105,-4398.3,-2151.4049999999997,-5604.075,-20095.785,-42933.555,11461.859999999999,-12388.904999999999
27888.48,-4389.615,-2143.575,-5603.8949999999995,-20100.465,-42960.42,11469.734999999999,-12382.47
27881.19,-4377.87,-2134.17,-5616.99,-20117.745,-43000.74,11481.84,-12375.81
27874.53,-4378.95,-2142.99,-5644.485,-20146.815,-43041.195,11489.175,-12369.24
27890.594999999998,-4371.48,-2145.15,-5656.59,-20164.32,-43087.59,11500.875,-12342.96
27893.16,-4375.3949999999995,-2149.605,-5646.014999999999,-20147.13,-43072.784999999996,11494.035,-12342.96
27871.425,-4402.44,-2165.04,-5614.965,-20100.555,-43001.595,11478.24,-12371.175
27887.355,-4383.495,-2141.8199999999997,-5594.13,-20078.01,-42961.14,11455.695,-12370.904999999999
27902.925,-4362.795,-2121.8849999999998,-5585.58,-20075.13,-42942.645,11439.314999999999,-12373.92
27880.829999999998,-4379.625,-2134.5299999999997,-5597.37,-20092.95,-42942.689999999995,11451.195,-12389.939999999999
27879.21,-4377.735,-2132.685,-5604.795,-20103.795,-42939.09,11470.814999999999,-12375.855
27874.71,-4378.455,-2133.18,-5603.67,-20095.829999999998,-42931.439999999995,11476.755,-12371.895
27859.05,-4388.8949999999995,-2144.6549999999997,-5608.08,-20092.68,-42939.405,11473.92,-12379.77
27849.239999999998,-4393.53,-2146.095,-5601.69,-20087.864999999998,-42946.29,11458.89,-12386.16
27845.504999999997,-4393.215,-2137.59,-5586.795,-20078.28,-42937.02,11461.904999999999,-12390.93
27845.28,-4394.205,-2142.585,-5602.95,-20096.864999999998,-42947.505,11476.71,-12387.375
27857.34,-4387.365,-2143.98,-5626.98,-20132.1,-42987.689999999995,11485.17,-12378.06
27870.93,-4379.175,-2145.1949999999997,-5645.205,-20156.04,-43004.924999999996,11478.285,-12372.48
