ch_0,ch_1,ch_2,ch_3,ch_4,ch_5,ch_6,ch_7
-10020.779999999999,-48481.695,-18345.735,-44758.305,-23057.594999999998,-12910.904999999999,-5818.139999999999,6488.865
-10019.88,-48465.225,-18275.085,-44689.049999999996,-22999.454999999998,-12944.88,-5748.525,6479.6849999999995
-10125.404999999999,-48503.61,-18219.149999999998,-44599.14,-22842.585,-12705.21,-5735.115,6397.785
-10156.455,-48517.56,-18201.6,-44593.83,-22860.629999999997,-12706.74,-5745.014999999999,6364.575
-10112.895,-48451.5,-18146.024999999998,-44557.02,-22872.555,-12726.09,-5785.785,6342.165
-10069.244999999999,-48402.765,-18108.045,-44548.965,-22923.629999999997,-12764.115,-5804.73,6335.639999999999
-10088.1,-48439.439999999995,-18093.195,-44552.564999999995,-22993.065,-12830.445,-5792.445,6337.035
-10174.545,-48525.705,-18063.719999999998,-44529.345,-23004.855,-12901.23,-5774.49,6335.46
-10297.26,-48611.655,-18048.465,-44507.88,-22987.844999999998,-12990.779999999999,-5757.84,6319.3949999999995
-10342.395,-48618.45,-18045.315,-44487.81,-22990.004999999997,-13087.305,-5739.21,6322.86
-10294.56,-48574.53,-18055.26,-44502.705,-23054.355,-13266.945,-5736.69,6341.76
-10199.88,-48556.305,-18090.765,-44485.02,-23094.945,-13438.529999999999,-5734.44,6377.445
-10142.865,-48565.89,-18149.67,-44433.314999999995,-23107.05,-13443.84,-5733.63,6395.985
-10190.88,-48580.47,-18185.94,-44401.185,-23095.934999999998,-13294.8,-5740.875,6364.71
-10176.074999999999,-48489.119999999995,-18201.195,-44449.064999999995,-23108.265,-13121.01,-5758.245,6338.969999999999
-10143.18,-48409.29,-18177.48,-44509.994999999995,-23156.82,-12995.369999999999,-5760.36,6349.094999999999
-10160.414999999999,-48437.955,-18163.62,-44538.795,-23229.45,-12898.215,-5761.304999999999,6359.219999999999
-10208.025,-48458.295,-18084.915,-44492.939999999995,-23281.379999999997,-12820.095,-5784.03,6350.219999999999
-10214.279999999999,-48455.46,-17991.27,-44409.015,-23359.905,-12740.039999999999,-5784.21,6379.2
-10206.135,-48585.195,-17980.605,-44358.345,-23692.68,-12667.455,-5750.1449999999995,6417.179999999999
-10126.035,-48620.159999999996,-17905.905,-44355.15,-24162.795,-12643.605,-5732.235,6483.24
-10061.91,-48556.034999999996,-17859.42,-44375.939999999995,-24510.555,-12629.205,-5729.13,6526.71
-10053.225,-48529.979999999996,-17960.805,-44391.42,-24798.465,-12576.015,-5703.03,6523.11
-10009.89,-48459.645,-18032.985,-44388.72,-25167.195,-12533.58,-5700.599999999999,6509.115
-9967.859999999999,-48411.72,-17988.84,-44360.505,-25486.469999999998,-12536.369999999999,-5718.24,6506.505
-9998.865,-48449.475,-17851.23,-44313.39,-25645.905,-12546.09,-5742.675,6506.37
-10034.595,-48605.805,-17777.114999999998,-44260.02,-25767.899999999998,-12542.31,-5745.78,6536.5199999999995
-10079.414999999999,-48704.58,-17678.16,-44180.595,-25838.82,-12548.789999999999,-5763.465,6556.995
-10042.154999999999,-48619.845,-17486.64,-44130.195,-25949.565,-12638.609999999999,-5812.155,6561.224999999999
-9984.645,-48462.165,-17339.445,-44139.78,-26095.05,-12754.395,-5837.04,6562.304999999999
-9955.529999999999,-48337.335,-17254.8,-44137.17,-26156.43,-12771.09,-5867.1449999999995,6561.2699999999995
-9914.445,-48279.465,-17204.265,-44153.549999999996,-26141.309999999998,-12773.295,-5936.804999999999,6566.445
-9953.775,-48343.14,-17192.43,-44150.13,-26031.69,-12740.85,-6003.585,6568.065
-10039.545,-48427.74,-17215.605,-44140.77,-25909.515,-12727.845,-6028.245,6557.535
-10139.265,-48523.409999999996,-17285.67,-44125.29,-25800.614999999998,-12658.095,-5987.429999999999,6536.969999999999
-10165.185,-48545.955,-17300.655,-44114.759999999995,-25687.754999999997,-12569.58,-6082.29,6523.5599999999995
-10095.885,-48462.795,-17149.274999999998,-44138.655,-25684.605,-12626.64,-6149.655,6557.759999999999
-10091.744999999999,-48433.275,-17029.079999999998,-44159.759999999995,-25707.51,-12654.045,-6173.28,6550.065
-10160.414999999999,-48476.97,-16995.195,-44133.03,-25675.515,-12646.484999999999,-6252.344999999999,6536.655
-10192.68,-48495.689999999995,-17023.59,-44106.21,-25642.844999999998,-12615.164999999999,-6325.0199999999995,6537.195
-10086.21,-48447.72,-17057.295,-44145.765,-25706.385,-12647.25,-6310.53,6574.455
-9994.815,-48371.939999999995,-17023.995,-44157.015,-25783.829999999998,-12679.38,-6227.325,6605.73
-10016.279999999999,-48342.869999999995,-17116.2,-44187.659999999996,-25759.44,-12542.445,-6149.385,6589.98
-10091.789999999999,-48383.64,-17316.675,-44224.875,-25732.62,-12404.25,-6099.75,6548.67
-10104.66,-48436.92,-17411.085,-44249.58,-25815.239999999998,-12388.095,-6054.389999999999,6567.525
-10148.94,-48629.475,-17417.52,-44244.36,-25880.85,-12355.695,-6030.63,6599.5199999999995
-10205.91,-48865.32,-17306.415,-44241.119999999995,-25957.754999999997,-12379.59,-6035.94,6618.465
-10158.119999999999,-49031.325,-17135.28,-44291.07,-26100.539999999997,-12441.824999999999,-6028.11,6627.465
-10142.91,-48934.979999999996,-17032.095,-44368.064999999995,-26265.555,-12476.115,-5980.365,6542.955
-10127.654999999999,-48757.095,-17125.605,-44315.325,-26277.12,-12324.015,-5976.2699999999995,6485.985
-10088.595,-48786.93,-17351.91,-44283.24,-26332.469999999998,-12240.99,-5964.974999999999,6540.3
-10091.205,-48867.345,-17614.44,-44278.29,-26442.765,-12247.109999999999,-5930.235,6616.259999999999
-10110.914999999999,-48984.119999999995,-17653.995,-44231.985,-26551.844999999998,-12240.945,-5886.405,6698.295
-10090.529999999999,-48982.5,-17562.195,-44207.549999999996,-26755.515,-12265.02,-5875.5599999999995,6761.655
-10053.945,-48562.155,-17120.295,-44097.075,-27056.34,-12302.369999999999,-6000.12,6733.8
-10010.789999999999,-48261.284999999996,-16644.285,-43897.409999999996,-27300.465,-12270.689999999999,-6138.99,6679.215
-9959.94,-48180.645,-16540.38,-43831.845,-27514.934999999998,-12263.265,-6098.94,6669.585
-9947.699999999999,-48198.465,-16589.43,-43874.055,-27692.504999999997,-12281.22,-5989.23,6651.495
-9942.164999999999,-48190.14,-16541.954999999998,-43859.52,-27701.414999999997,-12192.255,-6026.49,6611.849999999999
-9937.17,-48209.939999999995,-16598.52,-43877.79,-27642.87,-12119.355,-6037.695,6544.035
-9996.93,-48187.755,-16664.22,-43919.415,-27547.379999999997,-12052.845,-6048.495,6447.33
-10115.19,-48243.645,-16764.93,-43950.33,-27419.805,-11991.689999999999,-6052.005,6425.505
-10214.82,-48399.84,-16899.39,-43906.14,-27267.66,-11901.285,-6025.1849999999995,6470.6849999999995
-10348.425,-48594.645,-17059.815,-43869.42,-27178.649999999998,-11845.89,-6031.3949999999995,6494.535
-10355.58,-48779.189999999995,-17144.864999999998,-43910.865,-27230.445,-11909.43,-6048.2699999999995,6548.94
-10273.725,-48744.765,-17003.88,-43985.43,-27355.41,-12021.975,-6114.554999999999,6618.69
-10071.0,-48615.479999999996,-16916.445,-44106.705,-27517.68,-12208.275,-6146.55,6714.315
-9953.595,-48614.985,-16922.43,-44164.395,-27604.305,-12394.215,-6145.965,6755.804999999999
-9911.609999999999,-48532.634999999995,-16894.305,-44237.52,-27713.745,-12546.9,-6089.04,6784.74
-9943.875,-48386.25,-16781.22,-44112.735,-27425.789999999997,-12266.369999999999,-6141.915,6691.7699999999995
-9959.4,-48260.79,-16706.295,-44027.28,-27203.895,-12177.72,-6165.36,6619.094999999999
-9989.82,-48217.994999999995,-16737.57,-44003.835,-27093.329999999998,-12183.885,-6164.28,6565.634999999999
-10041.119999999999,-48182.13,-16818.12,-44011.665,-26918.145,-12100.77,-6095.295,6496.0199999999995
-10097.91,-48244.77,-16888.68,-44173.665,-26864.145,-12053.654999999999,-6043.5,6463.485
-10097.73,-48413.564999999995,-16979.489999999998,-44313.435,-26845.739999999998,-12045.869999999999,-5988.915,6504.57
-10099.529999999999,-48573.405,-17151.39,-44327.25,-26746.515,-12013.74,-5962.094999999999,6525.495
-10160.369999999999,-48782.295,-17463.87,-44304.884999999995,-26612.235,-11952.045,-5924.34,6571.62
-10230.029999999999,-49013.28,-17557.875,-44275.409999999996,-26507.52,-11931.029999999999,-5920.29,6599.295
-10283.805,-49110.93,-17447.579999999998,-44263.125,-26424.0,-11917.98,-5917.41,6620.355
-10405.664999999999,-49109.715,-17198.55,-44193.555,-26316.045,-11908.8,-5970.69,6554.969999999999
-10474.47,-48973.275,-16916.13,-44168.49,-26295.75,-12001.32,-6053.355,6532.425
-10335.24,-48737.52,-16786.079999999998,-44219.88,-26354.7,-12175.244999999999,-6120.764999999999,6563.655
-10136.295,-48457.755,-16580.43,-44235.945,-26392.815,-12300.885,-6174.764999999999,6564.285
-10055.07,-48301.56,-16545.555,-44311.275,-26382.329999999998,-12267.314999999999,-6151.05,6519.78
-10092.914999999999,-48295.935,-16740.809999999998,-44392.725,-26257.41,-12131.369999999999,-6113.835,6449.264999999999
-10129.994999999999,-48353.04,-17063.64,-44417.295,-26052.164999999997,-11971.574999999999,-6052.455,6401.25
-10270.44,-48557.744999999995,-17383.995,-44419.95,-25895.925,-11878.154999999999,-5990.58,6307.155
-10352.609999999999,-48767.534999999996,-17410.86,-44309.07,-25700.985,-11747.295,-5985.045,6260.67
-10389.69,-48881.295,-17191.44,-44214.345,-25597.934999999998,-11728.98,-6013.575,6276.735
-10398.06,-48860.369999999995,-16813.305,-44115.255,-25565.895,-11776.23,-6027.795,6365.474999999999
-10265.355,-48919.905,-16770.825,-44150.265,-25612.829999999998,-11873.88,-5990.13,6496.65
-10249.515,-48910.229999999996,-16857.135,-44228.07,-25658.055,-11979.855,-5984.1449999999995,6586.155
-10218.195,-48626.865,-16655.985,-44219.07,-25662.239999999998,-12070.755,-6128.415,6599.88
-10111.05,-48428.055,-16516.395,-44206.965,-25699.59,-12204.539999999999,-6347.655,6616.755
-10037.925,-48439.08,-16502.309999999998,-44214.795,-25752.015,-12328.83,-6366.33,6624.8099999999995
-10098.09,-48459.555,-16588.305,-44233.29,-25731.675,-12337.56,-6184.304999999999,6583.1849999999995
-10126.71,-48399.255,-16646.67,-44219.115,-25603.155,-12219.435,-6055.38,6550.695
-10161.765,-48331.619999999995,-16645.454999999998,-44208.674999999996,-25500.195,-12143.925,-6153.705,6472.304999999999
-10183.815,-48334.5,-16668.675,-44246.835,-25480.44,-12136.635,-6172.2,6438.375
-10251.045,-48411.854999999996,-16720.47,-44257.634999999995,-25434.945,-12101.085,-6128.325,6372.36
-10357.065,-48491.189999999995,-16728.93,-44154.36,-25239.96,-11939.265,-6111.405,6242.219999999999
-10407.465,-48512.34,-16696.17,-44091.585,-25100.504999999997,-11814.57,-6098.04,6231.915
-10376.369999999999,-48509.055,-16768.35,-44120.07,-25089.66,-11816.279999999999,-6087.6449999999995,6316.065
-10340.73,-48669.255,-17033.579999999998,-44214.93,-25169.04,-11908.8,-6040.349999999999,6450.66
-10353.195,-48962.43,-17173.755,-44254.215,-25233.254999999997,-12008.835,-6000.57,6543.8099999999995
-10422.855,-49144.77,-17022.465,-44176.455,-25265.969999999998,-12126.24,-6020.55,6591.509999999999
-10263.15,-48928.455,-16788.51,-44120.25,-25329.555,-12280.68,-6105.78,6625.3949999999995
-10114.965,-48496.634999999995,-16521.48,-44110.08,-25368.93,-12352.77,-6230.835,6621.12
-10073.699999999999,-48350.115,-16425.09,-44165.924999999996,-25417.89,-12401.234999999999,-6329.07,6599.295
-10057.59,-48353.445,-16585.155,-44226.9,-25450.02,-12443.085,-6227.325,6597.0
-10178.234999999999,-48334.185,-16730.415,-44260.47,-25434.989999999998,-12362.939999999999,-6027.165,6484.679999999999
-10294.605,-48371.58,-16713.585,-44188.2,-25214.04,-12076.109999999999,-5993.775,6314.3099999999995
-10307.43,-48605.985,-16709.579999999998,-44050.005,-24982.695,-11875.32,-6039.405,6304.905
-10305.225,-48756.465,-16803.945,-44019.0,-24953.715,-11889.585,-6031.62,6401.34
-10338.119999999999,-48779.64,-17008.425,-44041.68,-24960.96,-11906.82,-5970.465,6465.33
-10375.02,-48978.09,-17140.364999999998,-43977.015,-24896.114999999998,-11874.645,-5940.09,6530.085
-10305.449999999999,-49061.655,-17103.78,-43930.305,-24921.765,-11960.234999999999,-6033.87,6600.96
-10139.49,-48991.229999999996,-17023.68,-44022.825,-25077.96,-12121.244999999999,-6177.285,6661.349999999999
-10131.029999999999,-48811.545,-16871.489999999998,-44081.145,-25148.969999999998,-12181.725,-6252.795,6652.755
-10138.68,-48492.99,-16741.395,-44057.97,-25153.02,-12212.595,-6236.865,6632.6849999999995
-10099.529999999999,-48277.17,-16704.989999999998,-44047.665,-25151.625,-12197.16,-6194.79,6604.155
-10084.23,-48274.424999999996,-16811.145,-44129.97,-25238.925,-12294.314999999999,-6135.525,6586.335
-10022.67,-48282.21,-16889.805,-44108.955,-25184.655,-12261.015,-6123.554999999999,6614.91
-9992.609999999999,-48274.83,-16970.265,-44141.67,-25137.585,-12219.39,-6143.849999999999,6603.66
-10033.785,-48260.924999999996,-17083.845,-44182.17,-25056.18,-12182.039999999999,-6141.6449999999995,6532.155
-10175.445,-48372.03,-17266.59,-44204.895,-24939.315,-12084.3,-6071.219999999999,6416.594999999999
-10297.529999999999,-48517.604999999996,-17387.28,-44229.42,-24877.98,-11997.18,-6011.505,6383.429999999999
-10429.74,-48663.225,-17475.075,-44210.52,-24813.54,-11917.529999999999,-5984.054999999999,6410.7
-10535.76,-48924.18,-17547.93,-44188.38,-24777.315,-11874.105,-5947.469999999999,6480.405
-10388.475,-48702.15,-17409.149999999998,-44178.795,-24876.405,-11986.109999999999,-6047.19,6529.455
-10141.92,-48473.505,-17323.425,-44241.705,-25073.594999999998,-12159.314999999999,-6149.745,6602.3099999999995
-10131.345,-48544.92,-17320.77,-44240.4,-25139.7,-12189.33,-6178.005,6632.099999999999
-10070.64,-48524.04,-17384.265,-44265.195,-25209.045,-12186.855,-6076.44,6677.91
-10015.289999999999,-48446.685,-17446.095,-44307.9,-25148.835,-11972.385,-6052.365,6667.785
-9908.279999999999,-48341.835,-17386.92,-44303.13,-25126.739999999998,-11935.529999999999,-6196.275,6643.53
-9927.18,-48205.305,-17366.715,-44373.735,-25227.54,-12059.55,-6205.05,6554.745
-10089.63,-48211.155,-17492.579999999998,-44471.07,-25327.71,-12126.24,-6086.429999999999,6453.99
-10249.65,-48278.07,-17609.22,-44433.09,-25268.67,-12051.494999999999,-6110.91,6421.634999999999
-10376.64,-48457.305,-17708.895,-44272.619999999995,-25032.735,-11865.645,-6084.045,6472.575
-10459.215,-48955.005,-17797.184999999998,-44240.85,-24925.95,-11756.564999999999,-5940.0,6566.13
-10303.02,-49178.07,-17916.48,-44364.555,-25016.67,-11835.045,-5924.79,6679.53
-10058.265,-48760.784999999996,-18021.375,-44458.695,-25134.84,-11991.869999999999,-6047.01,6719.715
-9996.39,-48535.244999999995,-18045.719999999998,-44366.354999999996,-25093.17,-12015.99,-6190.0199999999995,6639.4349999999995
-9997.515,-48672.99,-18000.585,-44229.375,-24977.655,-11911.77,-6247.755,6505.605
-10090.619999999999,-48521.07,-17664.255,-44126.009999999995,-24907.95,-11838.42,-6236.594999999999,6431.804999999999
-10224.494999999999,-48255.21,-17224.38,-43999.335,-24900.39,-11891.52,-6221.34,6419.835
-10163.97,-48241.979999999996,-17200.485,-43930.215,-24866.37,-11909.43,-6207.705,6442.065
-10148.265,-48363.119999999995,-17484.3,-44006.715,-24855.84,-11951.1,-6105.825,6492.0599999999995
-10283.085,-48392.729999999996,-17655.165,-44094.555,-24862.364999999998,-11998.98,-6049.17,6464.835
-10463.22,-48276.674999999996,-17739.0,-44156.295,-24855.21,-11947.994999999999,-6012.315,6366.195
