ch_0,ch_1,ch_2,ch_3,ch_4,ch_5,ch_6,ch_7
-2269.44,-25313.265,23888.07,2549.25,972.3149999999999,-30263.219999999998,5817.554999999999,-8321.805
-2458.44,-25596.315,23651.37,2549.3849999999998,1326.96,-29965.05,5900.085,-8377.289999999999
-2571.435,-25584.84,23514.84,2610.225,1487.385,-29879.28,5855.535,-8482.949999999999
-2475.855,-25238.07,23606.055,2573.685,1292.895,-30083.67,5828.985,-8401.725
-2545.515,-25408.079999999998,23564.16,2628.225,1403.1,-30102.074999999997,5873.8949999999995,-8360.414999999999
-2621.6549999999997,-25609.725,23550.12,2754.585,1576.3049999999998,-30190.68,5918.04,-8334.449999999999
-2781.9,-25720.289999999997,23500.17,2830.9049999999997,1817.5049999999999,-29983.32,5994.945,-8380.845
-2961.855,-25841.385,23305.905,2786.13,1918.935,-29729.879999999997,6090.3,-8476.154999999999
-3096.9,-25879.32,23189.085,2636.8199999999997,1844.46,-29561.129999999997,6190.695,-8590.59
-3193.38,-26018.414999999997,23306.67,2613.735,1794.33,-29459.925,6227.73,-8664.93
-3067.47,-26046.27,23437.934999999998,2666.835,1734.165,-29501.64,6219.405,-8616.6
-2819.9249999999997,-25895.43,23503.5,2744.73,1645.02,-29657.879999999997,6168.195,-8520.39
-2492.8199999999997,-25629.57,23531.445,2761.02,1493.37,-29900.745,6100.92,-8375.85
-2249.8199999999997,-25325.594999999998,23653.035,2714.7599999999998,1296.6299999999999,-30194.235,6016.32,-8252.505
-2196.72,-25209.855,23767.92,2720.3849999999998,1219.32,-30394.395,5984.91,-8223.615
-2288.745,-25233.48,23836.184999999998,2733.705,1228.0049999999999,-30502.395,5991.885,-8266.455
-2384.19,-25216.695,23909.489999999998,2735.37,1258.56,-30498.93,6046.92,-8313.615
-2475.6749999999997,-25319.07,23780.969999999998,2696.895,1357.83,-30321.629999999997,6120.36,-8415.72
-2686.545,-25612.649999999998,23493.735,2663.46,1528.9199999999998,-29933.414999999997,6231.375,-8591.085
-2896.605,-25792.02,23281.605,2595.42,1615.2749999999999,-29644.11,6358.905,-8742.015
-3092.58,-25829.055,23151.375,2509.065,1665.7649999999999,-29498.039999999997,6445.125,-8894.699999999999
-3171.24,-25830.315,23184.809999999998,2534.4449999999997,1707.21,-29469.195,6450.344999999999,-8984.205
-3097.755,-25848.405,23330.34,2666.3399999999997,1730.115,-29532.239999999998,6415.83,-8974.44
-2846.25,-25896.285,23384.295,2742.345,1652.8049999999998,-29714.579999999998,6385.679999999999,-8855.145
-2465.865,-25711.739999999998,23487.75,2775.87,1513.35,-30015.809999999998,6317.46,-8690.085
-2283.075,-25550.145,23692.23,2824.1099999999997,1402.335,-30328.065,6231.554999999999,-8611.74
-2192.67,-25390.44,23795.684999999998,2839.995,1325.43,-30466.485,6196.455,-8627.85
-2166.975,-25234.02,23820.3,2818.4849999999997,1254.825,-30459.555,6147.675,-8723.699999999999
-2122.515,-25118.37,23879.204999999998,2686.5899999999997,1088.28,-30407.265,6123.285,-8741.34
-2123.1,-25025.579999999998,23883.165,2482.83,867.375,-30453.84,6213.285,-8683.92
-2238.795,-24996.825,23891.265,2448.4049999999997,867.06,-30446.73,6246.0,-8755.47
-2527.02,-25271.684999999998,23780.835,2603.745,1283.805,-30082.5,6299.37,-8925.885
-2832.5699999999997,-25606.485,23576.805,2698.1549999999997,1662.885,-29727.539999999997,6368.94,-9126.135
-2818.98,-25738.965,23494.05,2682.585,1623.195,-29782.17,6379.965,-9138.06
-2661.39,-25787.7,23422.77,2698.6949999999997,1558.8899999999999,-29939.715,6394.86,-9058.14
-2474.415,-25680.195,23384.475,2741.535,1554.615,-30096.27,6396.615,-8971.289999999999
-2386.08,-25646.355,23453.46,2786.7149999999997,1530.36,-30188.879999999997,6385.455,-8931.105
-2392.9649999999997,-25622.01,23548.32,2792.43,1492.245,-30164.715,6348.24,-8975.565
-2425.725,-25461.765,23619.645,2685.285,1385.595,-30085.515,6338.61,-9066.015
-2497.815,-25454.745,23696.73,2645.325,1330.695,-29998.305,6359.445,-9113.94
-2536.74,-25542.54,23708.565,2656.5299999999997,1317.24,-29976.254999999997,6398.19,-9114.074999999999
-2484.54,-25574.039999999997,23631.66,2677.185,1334.43,-29972.114999999998,6424.605,-9081.585
-2390.4449999999997,-25628.94,23487.795,2683.035,1377.0,-29926.395,6411.96,-9057.555
-2285.145,-25493.265,23559.165,2644.6949999999997,1261.98,-30059.73,6307.875,-9038.475
-2199.6,-25270.065,23757.48,2619.4049999999997,1155.735,-30295.44,6278.175,-8962.244999999999
-2241.315,-25137.54,23930.64,2648.9249999999997,1160.7749999999999,-30409.785,6378.075,-8919.63
-2313.99,-25119.945,23985.629999999997,2760.12,1287.09,-30329.954999999998,6399.134999999999,-8959.949999999999
-2324.6549999999997,-25135.965,23910.434999999998,2741.265,1316.835,-30213.585,6387.03,-8977.725
-2377.98,-25171.515,23826.645,2706.8849999999998,1373.85,-30101.489999999998,6406.245,-8995.095
-2586.96,-25427.969999999998,23670.675,2779.2,1675.1699999999998,-29791.215,6438.285,-9080.865
-2658.105,-25384.995,23728.184999999998,2750.265,1653.435,-29728.395,6460.2,-9109.845
-2733.165,-25401.195,23766.48,2744.685,1634.445,-29716.245,6484.995,-9120.465
-2714.22,-25660.664999999997,23629.184999999998,2771.865,1674.54,-29686.274999999998,6527.205,-9061.38
-2588.4449999999997,-25787.25,23482.89,2795.355,1666.485,-29738.789999999997,6548.58,-8957.295
-2480.67,-25792.469999999998,23487.57,2833.47,1648.8,-29865.69,6538.905,-8868.69
-2387.43,-25624.754999999997,23554.035,2820.105,1565.9099999999999,-30096.225,6496.695,-8850.24
-2316.645,-25573.004999999997,23539.32,2829.4649999999997,1569.2849999999999,-30119.715,6507.63,-8845.425
-2345.265,-25561.754999999997,23524.11,2851.875,1547.415,-30065.039999999997,6525.405,-8891.19
-2410.515,-25475.625,23702.805,2859.0299999999997,1449.27,-30028.14,6487.695,-8914.41
-2323.575,-25342.739999999998,23907.555,2791.08,1316.97,-30042.809999999998,6467.759999999999,-8818.875
-2253.285,-25269.704999999998,23938.11,2734.9649999999997,1298.655,-30053.655,6444.99,-8790.84
-2281.95,-25347.239999999998,23846.985,2745.72,1370.52,-30018.465,6418.349999999999,-8821.305
-2362.3199999999997,-25321.905,23806.215,2779.875,1442.745,-29980.8,6418.53,-8871.93
-2459.475,-25232.265,23804.684999999998,2775.24,1506.5549999999998,-29945.52,6402.554999999999,-8932.59
-2539.665,-25199.145,23861.43,2839.005,1615.86,-29919.329999999998,6319.844999999999,-8967.33
-2485.44,-25199.82,23888.879999999997,2886.975,1626.03,-30046.545,6224.04,-8912.205
-2397.105,-25346.745,23812.2,2911.5,1652.1299999999999,-30068.954999999998,6166.575,-8834.355
-2409.12,-25506.135,23770.754999999997,2890.35,1653.9299999999998,-29988.18,6098.355,-8830.44
-2466.72,-25514.235,23807.475,2864.43,1630.8,-29854.035,5993.325,-8881.199999999999
-2421.72,-25648.605,23742.765,2897.91,1659.375,-29713.545,5910.03,-8861.67
-2271.33,-25625.34,23674.23,2909.16,1611.585,-29751.39,5804.01,-8803.215
-2160.6749999999997,-25475.76,23708.204999999998,2910.15,1534.2749999999999,-29870.504999999997,5664.42,-8773.695
-2125.755,-25262.28,23802.21,2894.355,1466.82,-29966.715,5514.66,-8808.885
-2107.575,-25195.905,23914.754999999997,2950.1099999999997,1480.77,-30019.274999999998,5377.005,-8813.205
-2026.62,-25168.14,24018.434999999998,2999.565,1478.34,-30149.46,5282.639999999999,-8687.789999999999
-2000.385,-25064.684999999998,24168.78,2999.295,1470.4199999999998,-30299.579999999998,5281.74,-8573.039999999999
-2060.64,-24821.64,24328.079999999998,2963.3399999999997,1452.4199999999998,-30308.67,5264.37,-8601.345
-2158.1549999999997,-24646.23,24302.969999999998,2945.3849999999998,1471.365,-30224.204999999998,5236.695,-8688.06
-2275.245,-24688.665,24119.504999999997,2907.9449999999997,1555.74,-29959.829999999998,5214.825,-8742.914999999999
-2404.2599999999998,-24945.66,24044.129999999997,2943.045,1682.145,-29693.789999999997,5200.155,-8740.574999999999
-2451.015,-25229.34,23973.434999999998,2963.745,1757.835,-29593.664999999997,5180.58,-8695.395
-2335.0499999999997,-25265.52,23946.885,2960.145,1743.705,-29630.295,5098.635,-8621.279999999999
-2216.3849999999998,-25425.27,23864.94,3007.62,1790.9099999999999,-29629.079999999998,5054.445,-8508.42
-2125.62,-25536.105,23799.51,3087.4049999999997,1850.355,-29641.59,5019.57,-8381.789999999999
-2044.53,-25428.87,23789.52,3160.2149999999997,1860.345,-29760.39,4943.61,-8316.045
-1962.3149999999998,-25280.37,23882.309999999998,3217.8599999999997,1849.77,-29929.995,4855.724999999999,-8272.98
-1948.365,-25114.14,24102.54,3228.12,1790.37,-30040.829999999998,4797.9,-8274.555
-1915.56,-24984.629999999997,24212.79,3186.0,1667.745,-30081.105,4768.38,-8253.72
-1869.345,-24855.704999999998,24225.57,3033.3599999999997,1481.1299999999999,-30033.675,4749.974999999999,-8203.14
-1977.12,-24996.555,24197.85,3030.705,1591.245,-29762.324999999997,4753.304999999999,-8240.4
-2079.45,-25129.754999999997,24196.68,3129.66,1784.745,-29590.785,4686.03,-8310.24
-2063.79,-24926.715,24291.945,3150.585,1763.82,-29682.945,4578.075,-8298.72
-2090.0699999999997,-24723.989999999998,24403.905,3139.875,1818.855,-29659.59,4567.635,-8263.26
-2142.27,-24698.565,24413.985,3166.47,1893.465,-29600.64,4587.66,-8226.135
-2094.255,-24759.495,24342.795,3262.455,1967.445,-29672.19,4578.885,-8141.849999999999
-1969.0649999999998,-24876.315,24159.465,3349.2599999999998,2059.1549999999997,-29747.295,4572.8099999999995,-8023.365
-1871.3249999999998,-24905.879999999997,24107.445,3390.39,2084.625,-29742.885,4603.995,-7937.73
-1947.6,-24738.84,24333.84,3397.9049999999997,2031.7949999999998,-29740.815,4579.92,-8001.405
-1994.49,-24876.225,24406.695,3420.9,2077.605,-29552.219999999998,4611.735,-7999.514999999999
-1897.0649999999998,-25026.3,24299.235,3343.995,2049.84,-29412.18,4675.679999999999,-7960.995
-1814.9399999999998,-24938.594999999998,24306.885,3264.2999999999997,1943.82,-29358.539999999997,4714.38,-7958.79
-1722.78,-24759.54,24431.175,3197.97,1729.98,-29410.695,4727.474999999999,-7959.105
-1504.845,-24517.305,24599.204999999998,3206.52,1556.28,-29630.07,4705.155,-7845.4349999999995
-1335.4199999999998,-24466.545,24627.105,3282.21,1549.98,-29865.87,4771.125,-7641.0
-1532.7,-24592.094999999998,24591.465,3513.42,2048.7599999999998,-29642.805,4846.41,-7716.0599999999995
-1698.75,-24518.024999999998,24720.93,3755.6549999999997,2518.605,-29394.945,4797.179999999999,-7848.179999999999
-1578.465,-24214.635,24945.39,3871.71,2587.005,-29371.004999999997,4756.5,-7765.92
-1486.0349999999999,-24030.855,25049.835,3886.1549999999997,2575.17,-29222.504999999997,4858.245,-7662.105
-1373.49,-23827.725,25177.5,3945.105,2622.285,-28986.39,4947.705,-7589.745
-1263.555,-23570.37,25397.01,4060.935,2748.375,-28772.954999999998,5039.099999999999,-7510.545
-1201.455,-23380.829999999998,25629.57,4250.5199999999995,2983.455,-28506.059999999998,5129.01,-7418.88
-1111.2749999999999,-23614.695,25595.864999999998,4532.445,3378.24,-28121.895,5317.83,-7224.255
-779.7149999999999,-23949.585,25405.379999999997,4788.495,3707.0099999999998,-27813.149999999998,5568.525,-6912.764999999999
-344.385,-24008.489999999998,25252.469999999998,4990.724999999999,3855.825,-27719.28,5755.32,-6632.415
-37.845,-23605.2,25542.315,5201.73,3893.3999999999996,-27820.125,5793.974999999999,-6436.035
231.20999999999998,-22988.79,26138.969999999998,5312.88,3820.77,-27998.864999999998,5834.429999999999,-6241.59
376.425,-22509.765,26726.67,5418.855,3780.045,-27991.485,5935.094999999999,-6142.05
471.15,-22233.42,27003.78,5493.6449999999995,3749.49,-27908.594999999998,6029.775,-6073.965
605.115,-22024.079999999998,27099.405,5467.275,3726.4049999999997,-27801.629999999997,6126.03,-5920.469999999999
477.81,-22209.57,26963.46,5618.16,4122.585,-27440.64,6300.855,-5899.455
332.865,-22434.885,26845.92,5856.66,4560.4349999999995,-27029.52,6460.65,-5902.695
350.505,-22484.25,26815.05,5868.8099999999995,4613.264999999999,-26910.18,6537.0599999999995,-5840.415
533.925,-22432.995,26797.094999999998,5834.25,4545.224999999999,-26929.754999999997,6569.594999999999,-5717.565
650.79,-22070.52,26901.09,5802.21,4410.63,-27070.379999999997,6542.955,-5652.675
662.67,-21836.7,27041.67,5816.295,4391.865,-27139.14,6500.25,-5606.19
714.6,-21767.085,27165.059999999998,5881.275,4337.55,-27289.215,6488.91,-5473.62
832.545,-22012.785,27126.495,5981.535,4448.655,-27310.454999999998,6539.625,-5315.985
965.9699999999999,-22234.004999999997,26882.235,5973.929999999999,4525.11,-27286.11,6656.355,-5214.105
655.515,-22301.37,26803.395,6079.635,4851.315,-26981.73,6669.179999999999,-5465.205
452.60999999999996,-22378.77,26776.53,6142.32,4981.995,-26722.35,6677.37,-5644.17
542.16,-22397.445,26890.515,6104.205,4786.605,-26793.09,6684.929999999999,-5576.219999999999
658.62,-22342.05,27054.18,6060.195,4619.745,-26911.62,6709.7699999999995,-5431.7699999999995
682.155,-22323.105,27049.77,5982.75,4541.8949999999995,-26991.989999999998,6800.94,-5347.035
646.65,-22085.28,27211.77,5939.054999999999,4514.13,-27096.795,6764.219999999999,-5396.13
610.155,-22006.62,27228.149999999998,5962.275,4581.36,-27135.945,6788.565,-5384.565
655.92,-22120.695,27037.305,6044.355,4705.785,-27163.844999999998,6884.73,-5295.825
730.395,-22174.92,26803.035,6040.8,4712.445,-27144.45,6988.455,-5253.974999999999
699.255,-22249.395,26625.51,5963.445,4617.585,-27084.239999999998,7077.509999999999,-5288.849999999999
561.6,-22243.454999999998,26778.149999999998,5895.495,4495.095,-27006.48,7111.08,-5382.99
470.655,-22151.835,27136.125,5862.78,4366.485,-27058.905,7053.255,-5435.19
434.745,-22027.59,27299.024999999998,5832.045,4371.66,-27132.03,7047.315,-5461.605
417.06,-22116.87,27081.495,5895.36,4559.715,-27019.8,7113.87,-5491.53
481.85999999999996,-22215.78,26829.855,5931.9,4594.095,-26996.355,7140.33,-5468.04
688.77,-22489.739999999998,26685.27,5957.865,4515.885,-27080.91,7192.17,-5254.514999999999
737.235,-22555.98,26776.844999999998,5889.6449999999995,4382.639999999999,-27245.745,7281.405,-5118.84
664.56,-22244.715,27013.184999999998,5829.12,4344.12,-27407.969999999998,7271.6849999999995,-5199.974999999999
660.8249999999999,-22038.75,27157.86,5844.0599999999995,4385.97,-27460.215,7258.634999999999,-5251.365
606.645,-22214.745,27109.17,5824.035,4375.575,-27366.164999999997,7318.575,-5288.13
551.0699999999999,-22343.805,26937.719999999998,5795.82,4377.78,-27200.25,7382.115,-5323.995
558.9449999999999,-22112.864999999998,26873.46,5698.9349999999995,4261.905,-27152.73,7422.21,-5333.94
