ch_0,ch_1,ch_2,ch_3,ch_4,ch_5,ch_6,ch_7
7255.349999999999,-1069.965,10695.51,-1143.6299999999999,-129208.72499999999,-16315.38,15692.984999999999,-62275.68
7257.69,-1068.345,10697.49,-1139.58,-129206.06999999999,-16309.755,15696.224999999999,-62273.204999999994
7260.66,-1067.22,10699.109999999999,-1137.645,-129205.17,-16304.715,15701.58,-62269.335
7257.24,-1070.55,10695.285,-1143.27,-129213.62999999999,-16311.015,15696.72,-62273.88
7258.41,-1069.695,10694.295,-1146.06,-129218.08499999999,-16315.965,15695.279999999999,-62272.979999999996
7261.155,-1068.3899999999999,10695.51,-1145.655,-129219.345,-16315.65,15698.609999999999,-62268.524999999994
7257.33,-1072.0349999999999,10692.27,-1147.905,-129222.09,-16311.465,15696.945,-62270.865
7249.634999999999,-1076.94,10689.21,-1147.2749999999999,-129218.31,-16301.654999999999,15692.085,-62278.11
7252.5599999999995,-1071.72,10695.555,-1136.925,-129208.995,-16291.845,15698.88,-62273.295
7247.61,-1075.0049999999999,10693.845,-1135.935,-129206.87999999999,-16288.515,15693.525,-62279.235
7240.86,-1078.92,10692.81,-1137.2849999999999,-129208.995,-16293.24,15684.75,-62288.865
7238.384999999999,-1079.325,10695.24,-1134.0449999999998,-129206.34,-16292.609999999999,15680.385,-62293.365
7245.495,-1076.04,10698.795,-1129.5449999999998,-129199.905,-16287.255,15684.435,-62286.165
7248.0599999999995,-1078.92,10696.23,-1132.6499999999999,-129204.315,-16291.08,15691.005,-62280.134999999995
7244.46,-1080.27,10696.095,-1131.705,-129204.94499999999,-16290.855,15687.045,-62285.939999999995
7251.929999999999,-1073.205,10702.71,-1124.55,-129199.455,-16286.939999999999,15689.43,-62281.979999999996
7268.3099999999995,-1063.7549999999999,10707.93,-1121.94,-129199.095,-16286.58,15707.88,-62263.89
7264.3949999999995,-1067.085,10705.275,-1127.565,-129205.845,-16293.465,15707.295,-62265.645
7259.04,-1070.5049999999999,10701.315,-1133.01,-129215.205,-16298.64,15701.625,-62273.79
7251.884999999999,-1076.67,10694.52,-1139.445,-129224.79,-16306.695,15694.244999999999,-62283.645
7253.82,-1075.0049999999999,10697.4,-1136.565,-129222.45,-16305.029999999999,15697.574999999999,-62281.89
7248.78,-1082.295,10690.695,-1143.0,-129230.28,-16310.115,15697.125,-62285.715
7250.94,-1080.405,10694.07,-1139.445,-129226.86,-16304.039999999999,15702.074999999999,-62282.835
7247.07,-1084.815,10690.875,-1143.405,-129229.965,-16305.255,15695.144999999999,-62288.415
7251.929999999999,-1080.7649999999999,10694.25,-1140.7949999999998,-129227.58,-16304.715,15694.154999999999,-62284.994999999995
7254.54,-1078.605,10694.34,-1142.145,-129230.01,-16309.98,15698.519999999999,-62280.405
7253.46,-1078.875,10693.395,-1142.9099999999999,-129231.54,-16312.095,15702.3,-62279.82
7255.3949999999995,-1076.985,10696.41,-1138.455,-129226.86,-16304.31,15705.585,-62278.02
7265.655,-1068.615,10706.039999999999,-1129.905,-129221.19,-16297.244999999999,15712.335,-62269.29
7262.099999999999,-1073.115,10702.664999999999,-1133.9099999999999,-129227.94,-16302.33,15709.095,-62273.115
7260.705,-1075.545,10700.145,-1135.8899999999999,-129232.845,-16305.255,15705.585,-62276.759999999995
7259.759999999999,-1079.415,10697.31,-1139.2649999999999,-129237.705,-16307.595,15699.779999999999,-62279.595
7262.19,-1079.415,10697.805,-1137.33,-129236.22,-16306.109999999999,15704.144999999999,-62278.424999999996
7255.259999999999,-1085.1299999999999,10692.404999999999,-1143.54,-129249.26999999999,-16324.199999999999,15701.445,-62285.13
7255.575,-1083.51,10693.17,-1145.565,-129261.78,-16334.82,15700.5,-62285.399999999994
7260.344999999999,-1079.82,10695.96,-1143.135,-129262.72499999999,-16331.805,15702.66,-62283.78
7261.065,-1079.55,10697.76,-1141.5149999999999,-129258.765,-16337.744999999999,15703.92,-62285.13
7264.125,-1075.905,10702.08,-1137.24,-129253.545,-16344.045,15702.974999999999,-62284.905
7267.05,-1071.495,10705.14,-1134.72,-129246.65999999999,-16338.375,15701.31,-62285.22
7260.4349999999995,-1078.5149999999999,10696.635,-1140.615,-129241.215,-16325.414999999999,15696.269999999999,-62293.095
7263.764999999999,-1076.625,10699.244999999999,-1136.835,-129234.69,-16315.695,15702.435,-62289.674999999996
7256.79,-1083.195,10692.63,-1141.74,-129236.48999999999,-16318.484999999999,15699.33,-62294.265
7250.625,-1086.12,10692.359999999999,-1140.615,-129233.25,-16311.869999999999,15697.89,-62298.27
7250.445,-1087.02,10694.43,-1137.4199999999998,-129225.915,-16299.404999999999,15699.285,-62298.45
7253.91,-1084.815,10698.255,-1131.84,-129211.65,-16277.984999999999,15703.695,-62295.84
7254.8099999999995,-1083.915,10698.75,-1132.02,-129208.545,-16278.345,15702.705,-62295.255
7256.115,-1082.7,10697.31,-1137.465,-129222.495,-16297.515,15701.849999999999,-62292.104999999996
7253.6849999999995,-1086.03,10694.025,-1143.6299999999999,-129266.14499999999,-16312.814999999999,15700.5,-62291.88
7259.8949999999995,-1080.135,10699.56,-1136.97,-129303.09,-16311.375,15708.24,-62284.185
7256.925,-1084.32,10693.98,-1142.73,-129311.14499999999,-16325.369999999999,15705.945,-62288.145
7251.48,-1090.845,10688.58,-1148.085,-129267.72,-16332.795,15698.609999999999,-62293.994999999995
7249.1849999999995,-1091.295,10693.529999999999,-1141.065,-129234.42,-16325.64,15697.484999999999,-62292.869999999995
7253.37,-1087.02,10696.275,-1138.23,-129247.245,-16318.574999999999,15701.76,-62292.24
7253.46,-1083.1499999999999,10701.045,-1132.155,-129242.745,-16305.75,15702.164999999999,-62293.095
7254.855,-1081.53,10701.72,-1130.2649999999999,-129242.295,-16303.904999999999,15699.285,-62292.24
7250.264999999999,-1086.03,10696.904999999999,-1132.9199999999998,-129243.28499999999,-16297.425,15698.16,-62293.229999999996
7254.764999999999,-1083.555,10698.795,-1131.345,-129241.17,-16288.199999999999,15705.404999999999,-62284.905
7256.474999999999,-1083.42,10696.904999999999,-1138.77,-129255.84,-16310.34,15703.785,-62285.895
7253.505,-1087.245,10695.824999999999,-1142.5049999999999,-129263.22,-16319.97,15703.605,-62289.27
7247.61,-1093.32,10690.83,-1148.715,-129271.545,-16323.345,15696.18,-62295.75
7255.17,-1084.725,10702.395,-1135.395,-129258.58499999999,-16311.689999999999,15696.359999999999,-62291.61
7261.2,-1078.335,10710.494999999999,-1122.57,-129247.965,-16301.97,15699.15,-62287.74
7263.405,-1078.155,10708.515,-1122.705,-129248.37,-16299.63,15708.555,-62282.25
7260.884999999999,-1081.575,10704.779999999999,-1124.955,-129249.72,-16299.314999999999,15705.585,-62285.445
7259.535,-1084.59,10701.359999999999,-1129.2749999999999,-129255.75,-16306.289999999999,15704.369999999999,-62285.579999999994
7258.1849999999995,-1088.955,10697.984999999999,-1135.98,-129268.62,-16326.72,15702.435,-62286.345
7261.92,-1086.705,10700.234999999999,-1137.735,-129277.03499999999,-16336.89,15705.9,-62284.634999999995
7261.5599999999995,-1086.795,10700.685,-1141.2,-129288.69,-16341.705,15703.92,-62288.415
7268.58,-1080.495,10705.68,-1137.915,-129292.065,-16338.42,15708.42,-62282.52
7263.495,-1084.05,10702.529999999999,-1137.87,-129290.715,-16334.64,15703.154999999999,-62287.424999999996
7264.125,-1081.53,10707.074999999999,-1131.7949999999998,-129278.51999999999,-16319.295,15703.965,-62288.729999999996
7258.86,-1090.665,10698.21,-1139.22,-129279.42,-16312.455,15699.914999999999,-62295.93
7262.28,-1091.25,10701.0,-1132.29,-129260.87999999999,-16305.029999999999,15702.255,-62294.31
7259.3099999999995,-1091.97,10703.925,-1126.935,-129254.4,-16297.92,15698.88,-62299.665
7253.6849999999995,-1093.725,10704.51,-1125.81,-129258.495,-16299.99,15695.369999999999,-62306.954999999994
7248.375,-1099.26,10699.47,-1129.95,-129265.965,-16315.74,15691.994999999999,-62312.625
7250.085,-1100.79,10697.58,-1133.865,-129274.2,-16327.035,15695.01,-62311.14
7256.429999999999,-1095.615,10703.97,-1128.645,-129270.915,-16319.564999999999,15699.06,-62307.854999999996
7264.125,-1086.795,10711.619999999999,-1120.1399999999999,-129261.95999999999,-16303.769999999999,15706.664999999999,-62302.365
7258.41,-1093.23,10704.51,-1128.555,-129270.87,-16307.73,15700.994999999999,-62309.475
7258.679999999999,-1096.155,10700.865,-1134.495,-129279.33,-16311.105,15700.095,-62310.735
7257.87,-1098.27,10698.074999999999,-1138.5449999999998,-129284.415,-16317.045,15696.585,-62313.704999999994
7255.98,-1098.0,10699.425,-1137.2849999999999,-129284.37,-16315.56,15695.099999999999,-62317.079999999994
7256.745,-1096.965,10702.17,-1133.865,-129282.29999999999,-16315.83,15696.72,-62317.215
7259.759999999999,-1095.12,10705.77,-1127.745,-129274.2,-16306.47,15701.76,-62314.29
7255.08,-1100.43,10699.335,-1136.205,-129284.28,-16318.08,15697.8,-62319.06
7259.804999999999,-1095.2549999999999,10704.869999999999,-1131.885,-129281.08499999999,-16314.615,15700.185,-62316.854999999996
7259.804999999999,-1094.625,10706.805,-1127.97,-129277.44,-16307.414999999999,15701.13,-62316.854999999996
7261.155,-1094.1299999999999,10707.255,-1128.24,-129278.87999999999,-16306.695,15702.705,-62317.259999999995
7252.785,-1103.67,10696.904999999999,-1139.04,-129291.12,-16317.314999999999,15698.609999999999,-62325.314999999995
7257.465,-1097.01,10702.845,-1133.1,-129287.43,-16316.685,15700.724999999999,-62321.805
7259.8949999999995,-1096.155,10701.315,-1135.305,-129292.83,-16324.154999999999,15695.955,-62322.75
7259.085,-1098.945,10699.109999999999,-1137.78,-129295.665,-16326.675,15698.835,-62322.57
7256.7,-1101.555,10699.154999999999,-1138.635,-129296.43,-16328.07,15703.83,-62322.21
7256.61,-1102.32,10700.1,-1139.1299999999999,-129300.29999999999,-16333.965,15702.795,-62323.92
7256.025,-1102.0049999999999,10703.34,-1134.45,-129296.61,-16332.615,15701.085,-62328.195
7258.995,-1099.62,10705.77,-1135.62,-129300.29999999999,-16340.939999999999,15697.08,-62329.68
7257.24,-1102.59,10700.145,-1142.865,-129308.355,-16353.269999999999,15696.63,-62331.119999999995
7264.98,-1098.8999999999999,10702.845,-1139.715,-129299.805,-16343.46,15706.349999999999,-62321.895
7262.6849999999995,-1104.84,10698.48,-1143.495,-129300.93,-16339.05,15704.189999999999,-62323.784999999996
7253.6849999999995,-1110.1499999999999,10696.545,-1143.7649999999999,-129297.23999999999,-16335.81,15694.154999999999,-62335.53
7251.03,-1111.095,10695.869999999999,-1143.315,-129291.84,-16335.18,15695.234999999999,-62338.229999999996
7252.335,-1108.665,10699.56,-1137.69,-129278.205,-16326.72,15698.34,-62337.915
7251.4349999999995,-1103.445,10705.275,-1131.3899999999999,-129271.23,-16320.375,15689.97,-62344.665
7250.3099999999995,-1105.7849999999999,10704.42,-1131.7949999999998,-129292.73999999999,-16307.189999999999,15684.974999999999,-62350.604999999996
7252.335,-1106.865,10701.9,-1134.315,-129341.61,-16301.654999999999,15691.095,-62347.14
7256.835,-1106.235,10699.65,-1137.96,-129361.00499999999,-16313.13,15699.015,-62340.795
7257.42,-1104.57,10702.215,-1136.52,-129321.495,-16317.63,15701.76,-62341.38
7258.679999999999,-1104.795,10705.05,-1132.02,-129281.67,-16320.779999999999,15696.045,-62343.134999999995
7259.3099999999995,-1105.695,10702.395,-1135.1699999999998,-129299.985,-16329.42,15695.685,-62342.325
7257.42,-1108.485,10698.345,-1139.04,-129311.86499999999,-16340.175,15695.595,-62345.34
7254.315,-1109.115,10698.84,-1140.345,-129315.23999999999,-16342.605,15694.785,-62349.795
7257.195,-1105.74,10702.305,-1136.565,-129312.81,-16340.849999999999,15698.16,-62348.085
7251.66,-1109.52,10698.93,-1138.2749999999999,-129313.485,-16340.22,15693.974999999999,-62354.744999999995
7250.535,-1111.86,10696.59,-1141.965,-129316.14,-16331.849999999999,15691.635,-62358.57
7255.9349999999995,-1109.385,10697.895,-1141.965,-129318.75,-16332.795,15692.625,-62355.015
7262.91,-1105.3799999999999,10702.845,-1134.81,-129313.305,-16325.279999999999,15698.43,-62349.345
7263.0,-1105.425,10704.645,-1132.155,-129311.28,-16329.465,15697.98,-62353.619999999995
7265.655,-1101.69,10709.595,-1127.475,-129307.815,-16329.779999999999,15702.66,-62354.07
7255.844999999999,-1110.2849999999999,10700.46,-1135.08,-129313.17,-16327.035,15698.744999999999,-62362.89
7253.46,-1111.5449999999998,10700.865,-1134.0449999999998,-129310.605,-16321.23,15695.73,-62366.895
7254.09,-1111.5449999999998,10702.215,-1131.84,-129309.39,-16317.18,15689.34,-62370.314999999995
7249.679999999999,-1119.735,10694.475,-1141.605,-129324.735,-16317.855,15688.619999999999,-62375.22
7250.085,-1118.835,10692.539999999999,-1145.565,-129336.97499999999,-16325.055,15691.095,-62374.68
7252.425,-1116.99,10693.755,-1144.215,-129338.955,-16337.609999999999,15695.91,-62372.024999999994
7249.094999999999,-1119.645,10692.99,-1144.1699999999998,-129336.075,-16341.93,15694.38,-62375.895
7246.98,-1120.86,10691.369999999999,-1144.8899999999999,-129334.275,-16338.555,15690.105,-62380.395
7249.23,-1120.32,10693.035,-1141.83,-129322.62,-16328.88,15689.16,-62379.945
7255.259999999999,-1115.73,10697.355,-1136.2949999999998,-129312.62999999999,-16323.3,15695.01,-62374.68
7251.12,-1120.365,10691.55,-1141.155,-129321.62999999999,-16327.305,15688.125,-62381.655
7252.11,-1118.43,10693.529999999999,-1138.59,-129321.58499999999,-16324.92,15691.185,-62383.229999999996
7243.695,-1126.7549999999999,10686.555,-1144.44,-129326.625,-16330.23,15687.224999999999,-62392.77
7248.735,-1123.02,10692.045,-1139.22,-129324.465,-16332.57,15690.51,-62390.744999999995
7246.17,-1122.84,10693.44,-1136.655,-129322.08,-16329.734999999999,15688.26,-62394.255
7239.6449999999995,-1127.2949999999998,10691.279999999999,-1138.0049999999999,-129324.33,-16328.88,15683.58,-62402.895
7239.24,-1124.5049999999999,10695.285,-1133.325,-129323.295,-16325.73,15680.519999999999,-62406.854999999996
7244.28,-1118.07,10703.07,-1126.08,-129319.83,-16318.71,15676.605,-62405.909999999996
7252.335,-1110.465,10710.855,-1119.06,-129316.68,-16313.22,15679.394999999999,-62401.14
7262.37,-1100.97,10721.205,-1110.33,-129312.09,-16311.105,15686.46,-62393.805
7265.7,-1098.6299999999999,10722.195,-1111.635,-129319.56,-16321.859999999999,15679.755,-62395.29
7266.825,-1098.6299999999999,10720.17,-1117.1699999999998,-129333.59999999999,-16340.58,15670.305,-62399.655
7269.705,-1096.605,10722.285,-1116.6299999999999,-129338.64,-16349.4,15672.779999999999,-62398.17
7269.795,-1097.5049999999999,10721.115,-1117.665,-129343.68,-16354.755,15674.085,-62397.54
7277.4,-1091.115,10727.775,-1112.445,-129341.79,-16353.585,15677.369999999999,-62393.985
7278.344999999999,-1092.78,10726.56,-1114.9199999999998,-129346.29,-16357.05,15675.885,-62397.945
7268.535,-1103.3999999999999,10717.425,-1122.615,-129351.78,-16359.57,15670.71,-62408.07
7268.715,-1107.09,10716.66,-1121.445,-129349.44,-16354.305,15674.085,-62405.82
7276.7699999999995,-1103.5349999999999,10720.664999999999,-1118.25,-129346.37999999999,-16349.805,15682.005,-62398.53
7278.795,-1105.875,10717.785,-1122.345,-129350.51999999999,-16350.21,15686.595,-62397.63
7273.98,-1113.7949999999998,10708.47,-1130.85,-129357.855,-16351.019999999999,15687.09,-62401.185
