ch_0,ch_1,ch_2,ch_3,ch_4,ch_5,ch_6,ch_7
-2978.0099999999998,-377.055,9710.73,-4127.175,-121657.455,-19222.695,14917.32,-33242.354999999996
-2982.42,-380.47499999999997,9706.095,-4130.01,-121662.855,-19223.73,14911.244999999999,-33247.53
-2979.99,-375.615,9710.46,-4124.5199999999995,-121659.61499999999,-19215.045,14906.43,-33246.63
-2971.71,-368.145,9716.265,-4119.03,-121658.805,-19213.38,14908.859999999999,-33239.295
-2978.1,-375.47999999999996,9711.09,-4123.755,-121665.915,-19223.46,14909.085,-33240.375
-2981.565,-380.78999999999996,9701.91,-4130.775,-121675.185,-19225.395,14907.195,-33243.435
-2983.0499999999997,-382.635,9699.21,-4129.47,-121670.81999999999,-19207.485,14907.285,-33244.11
-2982.105,-382.68,9699.21,-4128.075,-121669.515,-19208.969999999998,14911.785,-33239.924999999996
-2977.02,-378.09,9700.605,-4126.59,-121673.06999999999,-19223.1,14916.644999999999,-33233.265
-2980.98,-382.365,9693.09,-4134.87,-121683.555,-19232.684999999998,14913.855,-33235.695
-2980.755,-380.745,9694.574999999999,-4130.46,-121678.11,-19219.995,14919.435,-33233.715
-2988.765,-387.09,9689.85,-4133.07,-121682.655,-19225.71,14909.805,-33241.77
-2984.895,-383.265,9695.97,-4124.655,-121676.355,-19217.07,14907.33,-33239.115
-2978.955,-376.965,9703.71,-4115.565,-121670.055,-19206.765,14908.41,-33231.6
-2981.79,-380.655,9697.949999999999,-4119.974999999999,-121673.97,-19214.415,14904.539999999999,-33231.69
-2980.305,-377.72999999999996,9701.685,-4112.46,-121663.44,-19207.395,14910.345,-33226.965
-2980.845,-380.29499999999996,9697.41,-4114.98,-121670.14499999999,-19217.925,14917.769999999999,-33223.14
-2988.855,-386.865,9690.66,-4119.57,-121674.33,-19219.68,14909.715,-33231.555
-2986.515,-385.065,9689.94,-4121.19,-121678.605,-19214.774999999998,14911.38,-33228.18
-2988.585,-387.9,9685.89,-4126.68,-121685.355,-19213.425,14909.76,-33228.405
-2982.285,-382.77,9691.92,-4116.33,-121676.08499999999,-19203.255,14917.904999999999,-33220.44
-2988.54,-392.175,9682.605,-4122.405,-121680.855,-19202.805,14912.595,-33226.38
-2988.72,-388.44,9688.5,-4114.3949999999995,-121672.75499999999,-19190.969999999998,14911.47,-33225.255
-2992.6349999999998,-388.08,9691.425,-4108.365,-121668.705,-19190.204999999998,14909.4,-33228.45
-2993.535,-390.41999999999996,9687.285,-4111.38,-121672.75499999999,-19198.98,14906.925,-33228.99
-2989.5299999999997,-388.485,9686.25,-4111.65,-121676.805,-19208.16,14911.695,-33221.655
-2995.92,-396.675,9679.68,-4117.59,-121686.93,-19218.78,14913.269999999999,-33222.69
-3004.29,-404.01,9672.48,-4122.63,-121688.81999999999,-19222.739999999998,14909.894999999999,-33227.909999999996
-2999.6099999999997,-399.41999999999996,9677.565,-4111.514999999999,-121667.715,-19205.145,14913.585,-33222.825
-2997.45,-397.08,9681.705,-4102.875,-121650.525,-19181.475,14913.359999999999,-33222.555
-2993.49,-395.90999999999997,9681.074999999999,-4105.755,-121662.54,-19187.325,14917.275,-33216.03
-2995.02,-400.68,9674.91,-4113.224999999999,-121714.73999999999,-19208.295,14913.675,-33214.5
-2993.625,-398.655,9678.69,-4107.78,-121747.545,-19210.635,14918.355,-33209.909999999996
-3000.24,-402.885,9674.414999999999,-4107.825,-121728.105,-19208.88,14914.26,-33216.165
-3007.755,-409.09499999999997,9667.935,-4112.099999999999,-121680.405,-19211.445,14908.859999999999,-33221.205
-3012.795,-414.09,9662.535,-4115.835,-121693.545,-19216.844999999998,14903.279999999999,-33223.68
-3012.075,-412.56,9666.404999999999,-4110.615,-121695.12,-19209.87,14903.73,-33222.555
-3011.04,-411.84,9668.88,-4106.25,-121690.39499999999,-19198.079999999998,14907.555,-33218.145
-3015.0899999999997,-416.7,9664.02,-4109.8949999999995,-121693.86,-19187.37,14905.935,-33219.854999999996
-3013.29,-413.72999999999996,9665.505,-4108.005,-121695.61499999999,-19194.614999999998,14909.76,-33216.39
-3004.9649999999997,-403.65,9673.154999999999,-4100.805,-121699.845,-19204.829999999998,14918.849999999999,-33205.5
-3004.335,-403.46999999999997,9668.205,-4107.96,-121717.665,-19220.985,14917.275,-33202.89
-3005.505,-404.90999999999997,9662.039999999999,-4115.295,-121730.04,-19233.225,14916.015,-33201.9
-3007.62,-408.465,9658.484999999999,-4117.455,-121731.84,-19233.945,14914.935,-33202.799999999996
-3010.41,-412.245,9656.685,-4116.465,-121726.39499999999,-19226.88,14915.16,-33203.43
-3016.4849999999997,-416.565,9653.895,-4113.09,-121710.28499999999,-19204.739999999998,14915.474999999999,-33207.345
-3020.085,-417.41999999999996,9654.57,-4108.7699999999995,-121708.62,-19197.0,14915.205,-33208.965
-3022.29,-419.58,9654.795,-4106.115,-121715.28,-19220.219999999998,14911.785,-33210.63
-3020.265,-418.995,9655.74,-4101.165,-121714.33499999999,-19229.489999999998,14913.494999999999,-33207.39
-3014.1,-412.425,9661.23,-4095.8999999999996,-121710.69,-19219.995,14919.974999999999,-33198.795
-3016.665,-413.01,9659.34,-4097.565,-121711.635,-19213.29,14920.38,-33197.49
-3024.27,-421.60499999999996,9650.609999999999,-4104.0,-121717.125,-19210.41,14914.439999999999,-33202.53
-3018.7799999999997,-420.47999999999996,9651.96,-4100.625,-121715.775,-19205.864999999998,14919.57,-33195.735
-3022.29,-423.09,9649.98,-4100.805,-121716.315,-19202.85,14915.609999999999,-33198.03
-3027.4649999999997,-427.455,9645.119999999999,-4104.63,-121723.56,-19208.34,14911.83,-33203.565
-3027.24,-428.58,9643.5,-4108.1849999999995,-121732.605,-19217.565,14918.039999999999,-33199.965
-3033.315,-432.09,9639.0,-4111.38,-121735.935,-19223.774999999998,14910.84,-33206.895
-3034.17,-430.28999999999996,9639.72,-4109.76,-121739.805,-19224.719999999998,14905.89,-33208.29
-3033.1349999999998,-429.65999999999997,9640.484999999999,-4109.49,-121747.31999999999,-19223.325,14904.135,-33205.725
-3025.665,-425.745,9646.605,-4100.8949999999995,-121737.23999999999,-19206.855,14916.734999999999,-33194.07
-3021.12,-423.315,9648.585,-4097.565,-121734.045,-19203.344999999998,14924.07,-33186.645
-3026.7,-425.52,9647.73,-4095.18,-121732.515,-19202.399999999998,14916.779999999999,-33192.405
-3032.2799999999997,-430.74,9643.365,-4097.565,-121734.09,-19204.739999999998,14909.984999999999,-33198.255
-3030.795,-430.155,9640.98,-4100.13,-121741.33499999999,-19217.745,14909.939999999999,-33196.635
-3028.365,-430.245,9640.08,-4099.545,-121739.89499999999,-19219.32,14914.71,-33191.955
-3029.13,-434.655,9635.535,-4104.855,-121743.045,-19224.045,14916.644999999999,-33191.865
-3033.54,-437.58,9635.67,-4102.065,-121738.68,-19220.445,14913.585,-33196.095
-3035.88,-437.84999999999997,9638.685,-4096.71,-121729.68,-19209.78,14912.324999999999,-33197.174999999996
-3036.6,-440.505,9636.39,-4097.25,-121725.81,-19204.11,14916.285,-33193.935
-3036.645,-440.72999999999996,9635.625,-4097.205,-121718.205,-19187.55,14921.189999999999,-33190.695
-3034.395,-435.645,9640.125,-4091.4449999999997,-121710.64499999999,-19163.204999999998,14923.26,-33189.165
-3036.69,-438.525,9635.22,-4097.43,-121751.055,-19181.16,14914.035,-33193.485
-3033.855,-436.635,9635.13,-4098.6449999999995,-121803.25499999999,-19199.655,14916.06,-33188.76
-3035.205,-437.31,9632.789999999999,-4099.86,-121810.23,-19210.635,14914.755,-33188.445
-3034.935,-438.615,9632.385,-4098.42,-121755.28499999999,-19209.87,14916.375,-33186.555
-3040.9649999999997,-446.76,9627.21,-4103.73,-121750.37999999999,-19210.545,14911.109999999999,-33191.865
-3043.2149999999997,-447.97499999999997,9626.535,-4104.63,-121765.455,-19210.815,14913.585,-33190.11
-3043.305,-446.715,9625.5,-4102.065,-121765.23,-19209.78,14913.359999999999,-33188.4
-3041.595,-443.835,9629.55,-4092.93,-121755.375,-19195.605,14913.81,-33186.104999999996
-3045.105,-443.52,9631.935,-4087.5299999999997,-121749.48,-19180.844999999998,14910.885,-33189.39
-3047.13,-442.44,9634.185,-4085.73,-121754.97,-19176.255,14912.369999999999,-33189.119999999995
-3045.33,-441.99,9631.755,-4087.98,-121769.86499999999,-19188.27,14911.695,-33187.275
-3043.5299999999997,-443.745,9626.805,-4093.74,-121781.61,-19214.01,14912.865,-33184.665
-3051.1349999999998,-452.96999999999997,9618.795,-4101.389999999999,-121789.08,-19234.665,14910.21,-33190.515
-3050.37,-454.59,9616.275,-4104.045,-121791.375,-19238.579999999998,14909.76,-33188.805
-3051.0899999999997,-455.265,9615.869999999999,-4103.1449999999995,-121782.51,-19231.605,14908.365,-33186.78
-3051.045,-451.215,9619.74,-4095.8999999999996,-121775.89499999999,-19215.315,14907.33,-33185.205
-3051.045,-449.37,9621.675,-4090.815,-121773.19499999999,-19201.32,14911.425,-33182.235
-3057.255,-453.195,9617.4,-4092.2549999999997,-121775.715,-19200.69,14905.619999999999,-33187.229999999996
-3055.455,-452.52,9618.435,-4090.41,-121778.01,-19197.989999999998,14905.305,-33185.655
-3052.71,-447.57,9626.31,-4077.99,-121765.185,-19183.454999999998,14906.609999999999,-33181.784999999996
-3055.815,-453.645,9622.17,-4081.815,-121773.015,-19193.265,14904.135,-33182.729999999996
-3053.16,-456.34499999999997,9618.48,-4087.7549999999997,-121785.25499999999,-19200.195,14909.625,-33179.534999999996
-3053.115,-455.21999999999997,9619.47,-4086.81,-121788.54,-19194.84,14911.019999999999,-33177.825
-3056.895,-455.76,9618.119999999999,-4088.52,-121797.315,-19200.69,14905.125,-33180.93
-3055.5899999999997,-453.645,9618.885,-4087.5299999999997,-121803.48,-19210.77,14907.195,-33176.79
-3052.62,-452.43,9618.66,-4088.3399999999997,-121804.875,-19209.42,14913.63,-33170.085
-3056.355,-457.065,9614.34,-4091.04,-121808.47499999999,-19209.555,14911.38,-33172.965
-3062.6549999999997,-461.88,9611.955,-4089.915,-121809.915,-19207.8,14903.55,-33179.04
-3057.0299999999997,-457.2,9619.785,-4079.3849999999998,-121800.33,-19202.625,14902.335,-33176.115
-3053.115,-454.14,9623.88,-4074.795,-121798.125,-19198.844999999998,14906.115,-33172.83
-3063.375,-465.075,9612.945,-4084.6949999999997,-121806.495,-19206.54,14901.3,-33180.479999999996
-3059.2349999999997,-461.34,9615.96,-4080.1499999999996,-121803.25499999999,-19203.3,14905.215,-33172.83
-3058.47,-460.89,9616.32,-4077.54,-121801.995,-19200.825,14904.539999999999,-33168.51
-3060.72,-464.84999999999997,9612.765,-4077.4049999999997,-121796.595,-19178.864999999998,14906.25,-33167.205
-3066.075,-470.47499999999997,9609.75,-4077.855,-121786.92,-19160.37,14905.305,-33171.479999999996
-3070.935,-475.28999999999996,9604.71,-4083.0299999999997,-121795.245,-19182.69,14902.109999999999,-33174.18
-3071.3399999999997,-474.39,9604.89,-4081.815,-121808.385,-19183.77,14906.519999999999,-33169.77
-3073.095,-475.965,9604.845,-4082.49,-121858.69499999999,-19190.52,14908.185,-33168.735
-3074.85,-475.83,9605.25,-4080.645,-121887.26999999999,-19190.114999999998,14905.125,-33169.32
-3072.105,-466.91999999999996,9614.88,-4066.785,-121841.01,-19180.755,14904.63,-33166.215
-3073.14,-463.54499999999996,9617.715,-4061.43,-121797.09,-19197.315,14898.869999999999,-33167.924999999996
-3072.915,-459.71999999999997,9621.72,-4056.975,-121812.075,-19210.95,14891.31,-33168.78
-3070.08,-453.555,9625.859999999999,-4056.0299999999997,-121822.065,-19211.489999999998,14888.385,-33167.43
-3061.98,-445.85999999999996,9629.73,-4054.6349999999998,-121827.23999999999,-19204.065,14891.849999999999,-33161.58
-3060.99,-446.895,9627.029999999999,-4059.045,-121840.37999999999,-19201.995,14894.279999999999,-33159.465
-3058.92,-444.465,9630.945,-4055.4449999999997,-121850.19,-19206.63,14894.055,-33157.305
-3061.08,-446.715,9629.46,-4052.25,-121856.48999999999,-19206.719999999998,14887.26,-33161.174999999996
-3060.315,-446.21999999999997,9630.494999999999,-4049.37,-121853.87999999999,-19196.82,14883.57,-33162.659999999996
-3057.615,-442.48499999999996,9632.43,-4046.805,-121851.72,-19200.555,14885.189999999999,-33159.96
-3049.515,-437.265,9638.505,-4039.3799999999997,-121842.36,-19203.075,14892.705,-33151.59
-3053.88,-441.53999999999996,9634.32,-4040.145,-121835.11499999999,-19209.015,14888.295,-33153.795
-3059.955,-445.77,9632.205,-4036.3199999999997,-121830.20999999999,-19199.34,14886.9,-33158.295
-3069.855,-456.705,9621.27,-4044.7349999999997,-121841.37,-19201.95,14885.82,-33163.47
-3070.44,-459.99,9615.645,-4052.745,-121854.105,-19209.195,14890.23,-33160.229999999996
-3069.81,-460.125,9613.845,-4055.355,-121861.62,-19212.795,14896.935,-33155.865
-3076.83,-467.19,9606.195,-4061.565,-121872.015,-19213.92,14898.06,-33158.159999999996
-3086.1,-478.62,9594.315,-4071.1949999999997,-121879.305,-19212.03,14894.685,-33162.84
-3082.815,-478.62,9594.494999999999,-4071.42,-121880.83499999999,-19208.61,14905.26,-33154.92
-3084.0299999999997,-479.96999999999997,9591.84,-4073.1299999999997,-121886.19,-19211.13,14908.904999999999,-33153.165
-3086.505,-476.955,9596.43,-4065.5249999999996,-121880.565,-19203.795,14904.18,-33156.765
-3094.605,-480.59999999999997,9593.955,-4065.615,-121882.095,-19201.995,14889.689999999999,-33167.295
-3092.625,-478.53,9596.115,-4061.565,-121878.58499999999,-19197.045,14895.63,-33163.515
-3091.23,-479.25,9592.92,-4064.49,-121887.135,-19203.57,14905.71,-33157.755
-3093.795,-477.315,9594.045,-4062.42,-121889.205,-19206.855,14902.019999999999,-33161.174999999996
-3091.725,-473.53499999999997,9597.42,-4056.795,-121888.75499999999,-19210.545,14899.949999999999,-33160.185
-3088.305,-471.73499999999996,9598.185,-4055.1299999999997,-121889.87999999999,-19208.295,14902.199999999999,-33157.17
-3090.1949999999997,-474.93,9595.529999999999,-4056.435,-121891.095,-19207.98,14901.029999999999,-33160.005
-3089.7,-476.055,9595.8,-4056.66,-121894.605,-19211.219999999998,14905.529999999999,-33155.82
-3093.0299999999997,-481.59,9589.095,-4064.355,-121908.78,-19222.965,14903.414999999999,-33156.54
-3084.93,-476.82,9594.045,-4059.9449999999997,-121910.12999999999,-19221.75,14908.68,-33148.845
-3089.6549999999997,-480.96,9590.4,-4061.52,-121909.14,-19195.605,14903.505,-33154.38
-3092.805,-484.065,9586.26,-4063.0049999999997,-121912.155,-19184.535,14900.445,-33156.135
-3090.06,-484.965,9585.99,-4061.25,-121910.715,-19179.315,14907.105,-33150.195
-3096.6749999999997,-491.21999999999997,9583.199999999999,-4061.79,-121909.905,-19184.219999999998,14901.57,-33155.595
-3096.765,-490.14,9585.449999999999,-4057.785,-121910.04,-19203.075,14899.635,-33156.405
-3098.115,-489.41999999999996,9587.744999999999,-4053.825,-121907.565,-19208.835,14901.255,-33156.945
-3101.1749999999997,-491.13,9585.765,-4053.555,-121902.705,-19202.985,14902.695,-33157.44
-3102.165,-491.21999999999997,9586.26,-4052.565,-121899.19499999999,-19191.87,14902.425,-33157.395
-3095.145,-484.38,9594.09,-4045.23,-121898.06999999999,-19181.295,14907.689999999999,-33150.104999999996
