ch_0,ch_1,ch_2,ch_3,ch_4,ch_5,ch_6,ch_7
-3750.5699999999997,-39930.39,-16561.215,-29691.315,-21078.765,-13998.6,-5341.32,571.635
-3845.97,-40132.845,-17095.995,-29777.265,-20983.59,-13742.64,-5086.8,584.01
-3357.6299999999997,-39447.045,-17353.62,-29643.074999999997,-20976.885,-13836.914999999999,-5409.405,394.695
-2689.605,-38397.869999999995,-16582.005,-29206.664999999997,-21031.245,-14204.699999999999,-6235.785,162.855
-1962.225,-37918.17,-16535.79,-28912.14,-21156.524999999998,-14471.144999999999,-6674.264999999999,502.155
-1599.12,-37713.284999999996,-16400.34,-29015.19,-21397.77,-14665.949999999999,-6789.78,910.62
-1751.085,-37953.765,-15896.699999999999,-28886.309999999998,-21412.485,-14635.439999999999,-6678.9,994.77
-1822.455,-38416.814999999995,-15902.505,-28800.18,-21247.065,-14368.455,-6441.165,1109.565
-1656.6299999999999,-38288.88,-16333.38,-28893.825,-21218.985,-14226.93,-6296.13,1251.945
-1694.745,-38032.47,-16323.255,-28994.445,-21217.274999999998,-14177.115,-6176.115,1214.9099999999999
-1878.345,-38185.74,-16052.13,-28824.93,-21143.114999999998,-14062.725,-6015.825,1062.45
-1900.125,-38313.945,-15569.82,-28536.12,-21135.51,-13995.314999999999,-6100.695,989.55
-1720.1699999999998,-38452.635,-15476.939999999999,-28500.164999999997,-21172.905,-13947.255,-6303.42,1182.1499999999999
-1487.925,-38376.405,-15745.859999999999,-28642.32,-21339.045,-14158.08,-6243.795,1509.57
-1584.09,-38583.945,-15510.105,-28513.35,-21195.899999999998,-14104.17,-6149.115,1457.865
-1789.605,-39099.465,-15361.244999999999,-28390.95,-20918.07,-13699.935,-6059.025,1346.085
-1895.1299999999999,-39681.945,-15514.47,-28456.425,-20877.795,-13448.654999999999,-6071.49,1438.065
-2301.5699999999997,-40271.265,-16195.635,-28872.45,-20886.255,-13150.619999999999,-5639.264999999999,1583.145
-3171.555,-41237.685,-16384.77,-29167.515,-20731.68,-12717.404999999999,-5143.7699999999995,1434.645
-4003.605,-42436.665,-16181.46,-28874.745,-20440.305,-12310.605,-4809.33,1147.59
-3669.795,-42194.7,-16914.645,-28515.195,-20257.829999999998,-12220.74,-4881.014999999999,991.7099999999999
-2566.17,-40219.155,-16752.195,-28443.015,-20421.495,-12592.305,-5526.675,898.56
-1434.0149999999999,-38767.5,-16173.0,-28256.399999999998,-20686.184999999998,-13027.41,-6188.175,1061.7749999999999
-1106.6399999999999,-38962.619999999995,-15345.765,-27852.66,-20734.02,-13189.41,-6481.17,1279.485
-954.5849999999999,-39252.869999999995,-15168.96,-27790.289999999997,-20736.719999999998,-13117.455,-6415.2,1609.335
-776.5649999999999,-39083.715,-15236.369999999999,-27877.364999999998,-20811.105,-13006.664999999999,-6286.7699999999995,1864.485
-727.92,-38738.655,-15241.904999999999,-28062.989999999998,-20989.395,-12995.73,-6264.09,1972.8899999999999
-879.3449999999999,-39344.895,-15115.095,-27816.075,-20967.84,-12805.335,-6077.205,2097.9449999999997
-1056.915,-39957.479999999996,-15557.13,-27543.329999999998,-20743.38,-12389.67,-5679.2699999999995,2233.395
-1353.735,-39771.314999999995,-15668.64,-27429.57,-20701.079999999998,-12274.83,-5495.849999999999,2156.7599999999998
-1254.96,-39435.075,-15176.699999999999,-27512.774999999998,-20917.53,-12424.14,-5557.005,1961.73
-903.15,-39040.155,-15020.099999999999,-27499.32,-21055.005,-12496.32,-5659.335,1833.12
-532.62,-38858.715,-14739.48,-27408.465,-21266.864999999998,-12681.63,-5885.82,1956.915
-475.65,-39165.39,-14432.445,-27297.585,-21425.94,-12773.205,-5949.719999999999,2188.395
-922.275,-40117.095,-13935.689999999999,-27178.155,-21383.774999999998,-12666.15,-5752.53,2170.71
-1382.31,-41202.54,-13677.39,-26956.754999999997,-21139.38,-12322.8,-5492.745,2092.5
-1228.725,-41178.869999999995,-14796.494999999999,-27173.16,-20979.045,-11958.39,-5154.389999999999,2268.855
-603.225,-40264.965,-16647.255,-27935.01,-21164.715,-11946.24,-5047.875,2553.8849999999998
-494.865,-39512.52,-16087.59,-27917.954999999998,-21516.255,-12370.32,-5463.135,2268.99
-503.685,-39445.29,-14713.154999999999,-27212.039999999997,-21762.315,-12794.22,-5988.33,2102.355
-306.27,-39443.67,-14108.894999999999,-26884.44,-21874.68,-12989.07,-6371.73,2303.415
-310.68,-39727.979999999996,-14167.394999999999,-27043.379999999997,-21911.76,-12977.1,-5870.205,2564.8199999999997
-827.64,-40501.979999999996,-14138.144999999999,-27114.21,-21842.37,-12625.785,-5416.425,2581.785
-1697.355,-41755.32,-14381.369999999999,-27280.395,-21503.835,-12044.654999999999,-4842.2699999999995,2601.9449999999997
-1766.835,-42546.015,-15353.279999999999,-27711.629999999997,-21212.28,-11392.695,-4218.255,2529.4049999999997
-1340.5049999999999,-41878.35,-16104.779999999999,-27555.48,-21032.954999999998,-11218.904999999999,-4296.42,2075.31
-631.485,-40286.43,-15347.025,-27205.2,-21372.165,-11948.58,-5190.48,2021.76
-313.335,-40141.89,-14504.265,-27200.7,-21850.29,-12641.265,-5507.01,2556.6749999999997
-1079.055,-41167.619999999995,-14584.814999999999,-27018.0,-21796.965,-12586.455,-5134.32,2691.9449999999997
-1671.075,-41920.38,-15169.994999999999,-27037.664999999997,-21600.989999999998,-12309.84,-4668.3,2539.2599999999998
-1776.51,-42093.945,-15194.115,-27146.61,-21512.16,-12084.84,-4739.13,2257.47
-1380.87,-41455.305,-14772.96,-27015.57,-21496.454999999998,-11954.744999999999,-5024.429999999999,2105.235
-1005.7049999999999,-41055.84,-14610.869999999999,-27024.93,-21645.629999999997,-11920.095,-4890.195,2317.365
-1024.875,-41174.415,-14622.164999999999,-27216.405,-21670.469999999998,-11805.795,-4684.005,2388.825
-1263.645,-41394.375,-14661.404999999999,-26916.03,-21459.285,-11543.67,-4586.58,2289.105
-1477.215,-41714.82,-14917.365,-26876.745,-21400.605,-11436.93,-4387.5,2521.17
-1332.09,-41897.564999999995,-15008.58,-27082.844999999998,-21454.02,-11505.24,-4286.7,2765.97
-1128.375,-41319.45,-14765.715,-26913.78,-21660.57,-11783.97,-4633.155,2594.295
-533.88,-40930.515,-14796.72,-26876.07,-21853.62,-11997.945,-4819.7699999999995,2838.06
52.785,-40231.53,-15436.08,-27427.41,-21947.805,-12047.535,-4702.23,3214.395
396.495,-39008.655,-14787.09,-26763.3,-21844.305,-12163.77,-5037.929999999999,2863.89
458.09999999999997,-38555.909999999996,-13406.984999999999,-25968.285,-21861.809999999998,-12344.22,-5310.675,2825.91
136.79999999999998,-39383.82,-13275.63,-26144.37,-21960.18,-12191.265,-4824.09,3309.795
-433.215,-40586.265,-13878.539999999999,-26518.545,-21996.09,-11896.83,-4175.82,3452.9849999999997
-876.24,-41381.82,-15057.539999999999,-26838.809999999998,-21741.21,-11429.414999999999,-3552.2549999999997,3317.4449999999997
-725.175,-40720.95,-15242.49,-26882.774999999998,-21869.55,-11671.47,-3710.16,2990.97
-348.34499999999997,-39645.225,-14587.38,-26585.864999999998,-22247.864999999998,-12342.33,-4418.19,2772.0899999999997
4.41,-39275.82,-13527.945,-26306.91,-22609.62,-13060.08,-4870.17,2984.355
-175.905,-40127.13,-13472.1,-26455.41,-22782.87,-13274.279999999999,-4610.5199999999995,3458.115
-879.615,-41115.33,-14756.13,-26996.355,-22423.68,-12736.17,-3696.8399999999997,3540.96
-1217.565,-41435.505,-16103.385,-27345.42,-21879.989999999998,-12001.05,-3220.875,3224.835
-1546.965,-40503.33,-16019.73,-27060.614999999998,-21830.94,-11995.47,-3779.5499999999997,2567.97
-1581.165,-39855.555,-14847.615,-27082.754999999997,-22264.92,-12472.605,-4299.974999999999,2330.8199999999997
-1611.0449999999998,-39937.905,-15043.365,-27089.91,-22348.844999999998,-12570.164999999999,-4117.005,2475.72
-1407.915,-39939.479999999996,-15049.619999999999,-27008.19,-22481.415,-12776.49,-4173.165,2414.745
-1236.915,-40029.57,-15118.74,-27106.92,-22822.29,-13146.885,-4121.865,2442.915
-1059.705,-39760.875,-15032.295,-27266.039999999997,-23108.129999999997,-13571.234999999999,-4098.42,2463.705
-735.8399999999999,-39503.115,-15132.24,-27548.19,-23317.559999999998,-13920.029999999999,-4264.11,2837.6099999999997
-1015.155,-39781.439999999995,-14744.97,-27413.82,-23240.25,-14018.22,-4326.389999999999,2986.47
-1691.7749999999999,-40644.045,-14941.664999999999,-27383.039999999997,-22689.899999999998,-13438.08,-3810.69,3015.18
-2364.5699999999997,-42113.564999999995,-16033.365,-27550.395,-21971.52,-12463.47,-3105.4049999999997,3077.2349999999997
-3033.27,-42953.534999999996,-16946.1,-27044.64,-21568.41,-11968.965,-2632.14,2964.1949999999997
-2698.29,-41587.38,-16839.495,-27067.95,-21615.12,-12120.93,-2586.735,2814.93
-1492.875,-38843.955,-15553.89,-27180.629999999997,-21770.954999999998,-12609.404999999999,-3131.145,2557.935
-408.645,-37684.125,-14314.185,-26684.145,-21869.504999999997,-13065.119999999999,-3671.415,2900.97
124.11,-37669.545,-14209.154999999999,-26631.945,-22059.54,-13293.72,-3715.56,3586.0499999999997
-164.11499999999998,-38024.415,-14185.98,-26367.39,-21859.739999999998,-13018.68,-3338.2799999999997,3793.995
-404.19,-38317.5,-13914.765,-26318.879999999997,-21552.39,-12588.84,-2816.145,3816.585
-201.015,-38066.445,-13985.82,-26254.035,-21452.85,-12377.925,-2646.72,3912.345
-231.57,-37795.14,-14142.914999999999,-25961.805,-21459.915,-12530.835,-2483.955,4056.345
-403.83,-38120.939999999995,-14213.295,-26008.605,-21436.11,-12548.88,-1963.1699999999998,4335.345
-510.615,-38497.68,-14384.519999999999,-26285.355,-21495.87,-12639.824999999999,-1458.0449999999998,4425.705
-1424.8799999999999,-39248.595,-13926.195,-25803.675,-21183.165,-12409.425,-1397.115,4085.2799999999997
-1744.02,-39824.055,-14229.585,-25338.195,-20776.14,-12035.52,-1577.07,4101.389999999999
-770.13,-38333.52,-14319.99,-25726.14,-20827.305,-12059.865,-1699.9199999999998,4142.34
252.63,-36772.784999999996,-13867.38,-25789.59,-20952.135,-12323.744999999999,-1916.3249999999998,4144.32
685.35,-37065.104999999996,-13490.01,-25860.42,-21066.48,-12467.789999999999,-1918.4399999999998,4713.795
241.92,-38101.005,-13315.994999999999,-25973.235,-20746.305,-12101.85,-1568.97,5083.785
-271.66499999999996,-38087.865,-14423.175,-26138.655,-20186.1,-11560.32,-1009.5749999999999,5122.304999999999
8.1,-36776.43,-15036.93,-26027.37,-20006.01,-11571.615,-937.3499999999999,4850.054999999999
-217.53,-36009.09,-13202.955,-25159.59,-19885.545,-11791.845,-1293.5249999999999,4416.03
2.475,-36485.189999999995,-12808.755,-25027.11,-20034.18,-11942.145,-1273.86,4739.58
247.545,-36269.1,-13219.154999999999,-25394.985,-20098.71,-11933.145,-1168.2,4774.23
462.41999999999996,-35903.115,-13051.664999999999,-25318.395,-20102.219999999998,-12082.05,-1293.435,4910.22
897.3449999999999,-35707.95,-12930.75,-25283.565,-20228.13,-12269.744999999999,-1221.2549999999999,5307.255
1031.175,-35415.765,-12900.15,-25269.03,-20154.149999999998,-12199.23,-1018.4399999999999,5316.525
973.305,-35500.95,-12877.289999999999,-25317.855,-20209.995,-12190.095,-756.36,5351.67
660.6,-35790.93,-13005.63,-25330.32,-20283.21,-12144.015,-375.39,5264.505
503.19,-35736.255,-13213.664999999999,-25436.204999999998,-20264.489999999998,-12066.75,-96.345,5093.28
568.26,-35247.645,-12514.77,-25458.12,-20365.38,-12240.72,-210.285,5037.12
452.07,-35660.52,-12079.529999999999,-24904.035,-20194.559999999998,-12319.02,-327.51,5296.005
86.58,-36949.994999999995,-13237.109999999999,-25382.385,-20007.27,-12000.42,434.88,5670.855
-347.76,-37428.795,-14332.005,-25841.879999999997,-19879.739999999998,-11677.23,631.53,5409.8099999999995
-376.155,-36110.564999999995,-14083.244999999999,-26036.504999999997,-20128.184999999998,-11946.285,238.14,4909.679999999999
39.33,-35334.9,-13238.324999999999,-25853.265,-20249.37,-12176.46,33.705,4789.485
330.885,-35077.994999999995,-13150.17,-25791.795,-20476.26,-12519.314999999999,-124.155,5015.5199999999995
420.16499999999996,-34968.869999999995,-12720.42,-25834.32,-20835.585,-12936.779999999999,-132.93,5221.17
305.72999999999996,-35524.17,-12512.564999999999,-25697.07,-20610.989999999998,-12735.404999999999,17.91,5326.0199999999995
154.07999999999998,-35990.505,-12871.98,-25787.879999999997,-20102.489999999998,-12226.14,513.405,5379.3
-106.785,-36345.06,-13273.154999999999,-25619.67,-19566.765,-11555.279999999999,837.495,5243.49
46.394999999999996,-36044.415,-13275.675,-25288.605,-19393.2,-11342.654999999999,831.87,5244.075
129.015,-35541.135,-13247.64,-25351.379999999997,-19190.7,-11153.654999999999,1031.76,5405.13
380.205,-35004.375,-12472.289999999999,-24790.5,-18988.02,-11251.305,968.895,5372.91
570.285,-34611.705,-12346.515,-24986.879999999997,-19067.76,-11368.484999999999,1023.12,5500.62
456.075,-35017.875,-12650.984999999999,-25276.05,-19140.614999999998,-11425.904999999999,1235.205,5723.73
908.9549999999999,-34981.065,-13313.34,-25484.625,-19041.39,-11271.51,1258.56,5847.075
1414.7549999999999,-34352.235,-13139.324999999999,-25395.3,-18862.065,-11201.85,898.6949999999999,5891.4
1552.4099999999999,-34044.165,-12604.904999999999,-25043.94,-18766.17,-11365.244999999999,837.765,6086.429999999999
1220.805,-34328.7,-12112.335,-25151.625,-18761.445,-11433.33,1112.6699999999998,6124.455
674.3249999999999,-34529.76,-12071.654999999999,-25204.14,-18630.315,-11231.369999999999,1480.185,5878.62
317.43,-34787.159999999996,-11966.625,-24918.614999999998,-18192.69,-10798.02,1663.83,5552.37
756.27,-34641.54,-12679.74,-25095.78,-18012.96,-10702.26,1501.11,5575.32
937.935,-34356.42,-12912.705,-24941.295,-18022.68,-10913.4,1264.995,5622.885
652.8149999999999,-34808.94,-12866.13,-24885.27,-18120.645,-11085.435,1205.82,5644.215
366.435,-34897.185,-13125.195,-25277.04,-18266.265,-11139.39,1316.655,5428.53
568.89,-33875.055,-12795.885,-25820.1,-18550.53,-11442.465,1204.11,5260.1849999999995
594.495,-34245.09,-12939.119999999999,-25723.844999999998,-18402.84,-11444.13,1211.175,5386.545
292.455,-34728.03,-12972.779999999999,-25578.315,-18279.315,-11389.23,1322.9099999999999,5254.83
1.08,-34995.42,-12449.205,-25710.975,-18448.02,-11559.375,1197.6299999999999,4915.755
-121.905,-35874.45,-13354.695,-25817.355,-18173.43,-11260.98,1433.205,5077.98
-268.28999999999996,-36197.325,-14929.47,-26102.204999999998,-17752.094999999998,-10862.145,1789.3799999999999,5154.12
-435.78,-35397.314999999995,-14262.39,-25746.254999999997,-17660.655,-11000.475,1653.5249999999999,4463.6849999999995
233.91,-33973.92,-12802.59,-25457.04,-17893.844999999998,-11476.35,1065.1499999999999,4116.87
962.0999999999999,-32782.095,-12235.59,-25751.024999999998,-18514.485,-12245.715,381.645,4477.7699999999995
718.425,-33539.354999999996,-12366.494999999999,-26073.135,-18864.765,-12520.664999999999,386.775,4879.08
-248.22,-35143.11,-12912.93,-26322.524999999998,-18746.37,-12107.699999999999,1035.495,4876.605
-659.2049999999999,-35613.72,-13613.4,-26604.315,-18569.925,-11777.805,1399.725,4652.325
-461.60999999999996,-35412.795,-14568.66,-26689.454999999998,-18265.14,-11632.77,1374.6599999999999,4449.33
45.945,-35417.205,-14684.76,-26442.719999999998,-18162.989999999998,-11752.83,1133.235,4548.33
213.70499999999998,-34393.14,-14048.1,-25940.114999999998,-18110.565,-11827.17,978.2099999999999,4468.679999999999
