ch_0,ch_1,ch_2,ch_3,ch_4,ch_5,ch_6,ch_7
362192.13,-56518.515,-32156.28,-32095.89,-7448.355,-31983.03,-7559.19,-779.805
362162.385,-56510.64,-32194.62,-32118.704999999998,-7459.469999999999,-32042.879999999997,-7613.099999999999,-765.9449999999999
362123.95499999996,-56379.104999999996,-32059.485,-32067.629999999997,-7519.634999999999,-32182.02,-7679.655,-785.745
362056.005,-56288.025,-31931.91,-32088.239999999998,-7459.0199999999995,-32127.524999999998,-7687.53,-817.92
361961.73,-56285.369999999995,-31882.5,-32114.789999999997,-7499.429999999999,-32201.864999999998,-7695.9,-797.985
361839.195,-56341.034999999996,-31923.765,-32101.875,-7624.17,-32240.565,-7668.719999999999,-802.485
361722.95999999996,-56284.38,-31925.879999999997,-32078.07,-7661.79,-32307.164999999997,-7745.804999999999,-813.51
361637.595,-56109.465,-31826.114999999998,-32023.574999999997,-7582.815,-32229.405,-7779.014999999999,-816.5699999999999
361573.47,-56103.659999999996,-31784.355,-31969.844999999998,-7427.295,-32105.789999999997,-7747.29,-815.9399999999999
361526.535,-56161.665,-31808.565,-31987.934999999998,-7394.985,-32035.184999999998,-7739.28,-791.01
361501.56,-56254.32,-31908.69,-32017.23,-7340.49,-31959.135,-7654.32,-780.885
361476.40499999997,-56284.2,-32041.215,-32069.25,-7379.594999999999,-31995.315,-7552.844999999999,-806.895
361424.20499999996,-56369.07,-32224.86,-32127.344999999998,-7590.285,-32163.93,-7521.48,-849.1949999999999
361343.83499999996,-56553.39,-32376.555,-32215.949999999997,-7691.759999999999,-32276.475,-7618.5,-857.295
361266.885,-56440.53,-32220.765,-32185.395,-7822.304999999999,-32435.91,-7749.855,-814.8149999999999
361177.11,-56351.655,-31981.184999999998,-32046.84,-7755.03,-32396.895,-7746.929999999999,-830.295
361084.095,-56358.945,-31880.34,-31964.535,-7611.57,-32272.065,-7715.07,-882.495
361005.70499999996,-56313.945,-31866.93,-31962.059999999998,-7484.264999999999,-32153.67,-7656.615,-920.655
360954.495,-56393.189999999995,-32024.745,-32083.785,-7440.84,-32035.725,-7574.58,-936.0
360931.05,-56339.64,-32016.69,-32094.989999999998,-7429.455,-32081.219999999998,-7605.9,-928.89
360919.70999999996,-56269.485,-31974.48,-32044.86,-7388.775,-32085.18,-7625.969999999999,-955.2149999999999
360893.97,-56409.93,-32117.399999999998,-32092.695,-7352.639999999999,-32122.485,-7638.795,-932.9399999999999
360860.445,-56429.369999999995,-32085.405,-32132.475,-7504.875,-32197.274999999998,-7705.08,-900.54
360806.67,-56357.415,-31951.215,-32157.449999999997,-7656.299999999999,-32200.289999999997,-7792.74,-894.6
360746.235,-56136.825,-31707.09,-32101.425,-7710.929999999999,-32375.655,-7937.82,-864.5849999999999
360671.355,-55954.17,-31559.445,-32035.905,-7654.995,-32499.809999999998,-7961.985,-840.8249999999999
360586.70999999996,-55980.54,-31601.745,-31980.195,-7645.005,-32407.425,-7879.995,-867.9599999999999
360511.74,-56158.47,-31777.379999999997,-31976.594999999998,-7745.4,-32324.94,-7690.634999999999,-912.87
360460.39499999996,-56433.78,-32067.315,-32040.899999999998,-7569.405,-31996.53,-7434.405,-990.2249999999999
360428.89499999996,-56555.009999999995,-32213.699999999997,-32112.495,-7436.655,-31995.989999999998,-7386.48,-1027.845
360414.045,-56580.119999999995,-32237.055,-32150.789999999997,-7473.6449999999995,-32088.735,-7497.63,-996.3
360403.92,-56529.81,-32168.565,-32187.645,-7646.04,-32210.145,-7665.255,-988.515
360381.87,-56355.84,-31995.629999999997,-32172.84,-7668.719999999999,-32265.18,-7778.07,-976.77
360339.12,-56169.27,-31813.965,-32151.555,-7705.665,-32329.71,-7862.219999999999,-937.53
360271.52999999997,-56097.63,-31704.975,-32067.36,-7670.7,-32251.41,-7862.445,-935.64
360186.255,-56097.314999999995,-31753.934999999998,-31989.78,-7604.639999999999,-32263.379999999997,-7839.495,-958.05
360083.07,-56200.905,-31938.074999999997,-32087.699999999997,-7742.79,-32417.864999999998,-7764.344999999999,-957.105
359990.91,-56394.54,-32122.215,-32153.94,-7798.365,-32344.92,-7640.594999999999,-973.4399999999999
359932.86,-56514.735,-32208.074999999997,-32148.27,-7567.605,-32179.274999999998,-7610.219999999999,-990.5849999999999
359901.225,-56537.549999999996,-32206.454999999998,-32151.329999999998,-7472.835,-32109.75,-7596.045,-1004.805
359891.27999999997,-56499.659999999996,-32134.545,-32135.94,-7386.165,-32084.235,-7630.335,-1053.855
359892.58499999996,-56386.619999999995,-31984.695,-32114.43,-7452.09,-32140.62,-7741.08,-1076.58
359868.015,-56230.515,-31826.969999999998,-32068.53,-7494.75,-32162.039999999997,-7791.929999999999,-1062.6299999999999
359802.045,-56151.405,-31769.864999999998,-32019.39,-7581.195,-32189.94,-7806.42,-1048.23
359709.975,-56231.235,-31868.774999999998,-32036.085,-7632.719999999999,-32244.704999999998,-7804.71,-1037.295
359599.995,-56355.03,-32000.039999999997,-32095.844999999998,-7680.915,-32274.045,-7700.94,-1057.545
359490.555,-56490.255,-32112.18,-32123.925,-7515.09,-32140.62,-7648.92,-1119.96
359408.51999999996,-56447.865,-32074.335,-32087.204999999998,-7448.264999999999,-32161.949999999997,-7673.715,-1132.83
359355.105,-56369.295,-32062.68,-32120.73,-7538.715,-32261.445,-7647.795,-1101.555
359328.14999999997,-56340.945,-32076.719999999998,-32126.67,-7675.965,-32352.84,-7654.32,-1095.165
359316.40499999997,-56362.59,-32174.91,-32087.07,-7619.445,-32247.719999999998,-7653.42,-1068.705
359305.11,-56461.86,-32284.44,-32076.225,-7502.849999999999,-32067.765,-7612.469999999999,-1074.87
359259.39,-56588.805,-32332.949999999997,-32115.059999999998,-7381.08,-31901.039999999997,-7598.115,-1093.365
359171.01,-56563.604999999996,-32208.57,-32174.055,-7302.915,-31906.844999999998,-7655.4,-1089.315
359131.005,-56491.829999999994,-32059.079999999998,-32177.024999999998,-7354.844999999999,-32105.699999999997,-7767.855,-1083.78
359053.695,-56372.67,-31872.42,-32088.329999999998,-7532.82,-32483.114999999998,-7878.285,-1112.445
358972.01999999996,-56068.829999999994,-31635.405,-31992.074999999997,-7818.795,-32653.17,-7856.415,-1141.875
358900.515,-55997.549999999996,-31653.225,-31986.719999999998,-7833.825,-32430.239999999998,-7759.53,-1186.2
358847.77499999997,-56100.195,-31831.605,-32055.524999999998,-7654.5,-32254.02,-7720.605,-1213.245
358807.635,-56284.604999999996,-32040.405,-32146.515,-7529.264999999999,-32061.914999999997,-7652.34,-1176.48
358787.97,-56388.915,-32112.719999999998,-32178.239999999998,-7373.34,-31905.675,-7591.049999999999,-1167.3
358776.675,-56305.395,-31972.59,-32125.05,-7325.415,-31957.155,-7666.514999999999,-1184.2649999999999
358739.235,-56340.27,-31907.969999999998,-32092.739999999998,-7556.355,-32228.37,-7822.3949999999995,-1171.8899999999999
358681.995,-56289.24,-31816.844999999998,-32107.32,-7965.54,-32667.434999999998,-7964.054999999999,-1136.835
358612.38,-56069.865,-31668.614999999998,-32074.065,-8104.59,-32786.369999999995,-7985.205,-1117.395
358521.12,-56087.415,-31745.114999999998,-32076.405,-7963.469999999999,-32635.44,-7934.04,-1142.865
358425.855,-56167.38,-31891.004999999997,-32075.145,-7711.335,-32413.68,-7816.634999999999,-1170.855
358334.14499999996,-56336.759999999995,-32095.26,-32107.32,-7463.205,-32203.98,-7713.315,-1205.6399999999999
358274.61,-56413.259999999995,-32138.864999999998,-32126.805,-7417.215,-32166.495,-7707.105,-1230.345
358240.635,-56441.34,-32091.3,-32126.715,-7469.505,-32142.465,-7670.88,-1248.03
358216.245,-56536.92,-32122.62,-32147.64,-7515.719999999999,-32085.945,-7560.719999999999,-1261.485
358197.3,-56523.015,-32131.574999999997,-32149.574999999997,-7568.46,-32069.655,-7572.33,-1281.78
358161.48,-56550.465,-32203.89,-32173.829999999998,-7534.08,-32050.53,-7681.32,-1280.115
358109.685,-56445.84,-32094.765,-32143.635,-7542.224999999999,-32216.219999999998,-7811.639999999999,-1248.075
358045.065,-56167.875,-31825.035,-32068.125,-7588.215,-32371.469999999998,-7960.139999999999,-1226.34
357959.925,-55996.064999999995,-31636.8,-31977.405,-7558.155,-32334.795,-8022.375,-1227.195
357863.31,-56021.49,-31671.09,-31953.465,-7569.45,-32389.739999999998,-7874.505,-1228.32
357769.89,-56255.04,-31907.789999999997,-32043.059999999998,-7596.945,-32350.545,-7639.965,-1292.6699999999998
357693.02999999997,-56459.88,-32122.079999999998,-32148.449999999997,-7615.17,-32115.69,-7463.295,-1385.82
357663.195,-56520.72,-32186.835,-32121.809999999998,-7537.545,-32005.35,-7496.415,-1405.575
357670.70999999996,-56366.505,-32116.454999999998,-32086.395,-7531.424999999999,-32130.449999999997,-7655.985,-1301.49
357669.63,-56272.095,-32111.19,-32046.84,-7522.83,-32167.17,-7691.985,-1226.205
357630.435,-56367.854999999996,-32241.645,-32057.1,-7436.295,-32055.254999999997,-7670.5199999999995,-1221.885
357564.95999999996,-56442.329999999994,-32235.254999999997,-32148.945,-7466.085,-32125.59,-7722.0,-1238.76
357487.11,-56438.28,-32109.48,-32172.66,-7593.705,-32328.18,-7764.48,-1259.46
357398.77499999997,-56336.49,-31864.23,-32085.855,-7632.945,-32459.579999999998,-7840.98,-1311.165
357313.45499999996,-56242.665,-31755.015,-32026.454999999998,-7647.48,-32343.48,-7806.599999999999,-1333.0349999999999
357246.99,-56284.29,-31906.53,-32099.579999999998,-7562.655,-32072.67,-7668.405,-1341.45
357204.64499999996,-56275.02,-32048.01,-32153.67,-7529.8949999999995,-32049.719999999998,-7634.835,-1344.69
357174.58499999996,-56357.729999999996,-32181.704999999998,-32209.289999999997,-7688.07,-32237.1,-7636.5,-1353.4199999999998
357153.615,-56549.61,-32296.41,-32260.815,-7624.08,-32223.285,-7621.245,-1381.5449999999998
357145.38,-56517.119999999995,-32107.364999999998,-32161.41,-7524.63,-32207.805,-7659.405,-1398.33
357129.945,-56344.994999999995,-31846.004999999997,-31991.715,-7408.62,-32129.64,-7721.325,-1413.315
357077.16,-56251.619999999995,-31773.105,-31972.59,-7436.25,-32155.065,-7749.134999999999,-1395.09
357003.045,-56251.979999999996,-31835.295,-32069.07,-7470.855,-32254.515,-7818.84,-1361.565
356908.27499999997,-56221.515,-31879.26,-32135.715,-7762.995,-32419.53,-7839.315,-1329.7949999999998
356819.445,-56235.915,-31915.98,-32143.995,-7837.92,-32403.239999999998,-7802.865,-1361.205
356743.305,-56247.345,-31927.23,-32073.704999999998,-7681.139999999999,-32304.465,-7783.065,-1403.235
356688.54,-56289.15,-31933.17,-32009.085,-7549.92,-32213.43,-7718.4,-1417.23
356658.48,-56334.375,-31981.184999999998,-32010.48,-7328.384999999999,-32144.445,-7744.545,-1399.77
356642.37,-56272.634999999995,-31938.795,-32085.045,-7482.33,-32331.239999999998,-7866.54,-1365.57
356626.52999999997,-56171.34,-31836.645,-32082.21,-7711.245,-32478.48,-7875.405,-1361.2949999999998
356592.06,-56183.805,-31903.515,-32053.454999999998,-7741.3949999999995,-32427.899999999998,-7767.8099999999995,-1378.8899999999999
356536.89,-56324.564999999995,-32096.16,-32087.879999999997,-7681.86,-32286.015,-7663.455,-1422.72
356451.39,-56439.765,-32192.73,-32119.155,-7554.915,-32158.395,-7610.759999999999,-1436.085
356349.64499999996,-56458.665,-32160.195,-32141.789999999997,-7510.7699999999995,-32203.395,-7743.735,-1421.325
356256.58499999996,-56380.454999999994,-32074.605,-32118.704999999998,-7585.514999999999,-32204.07,-7789.275,-1401.57
356177.97,-56231.865,-31968.18,-32036.805,-7621.92,-32145.48,-7711.875,-1418.49
356129.055,-56274.615,-31990.949999999997,-32030.684999999998,-7556.849999999999,-32104.079999999998,-7676.1449999999995,-1461.4199999999998
356093.595,-56480.085,-32113.395,-32181.03,-7462.304999999999,-32127.03,-7693.695,-1488.465
356087.43,-56406.104999999996,-32002.469999999998,-32186.25,-7416.674999999999,-32073.344999999998,-7701.21,-1447.56
356088.95999999996,-56225.61,-31845.375,-32068.574999999997,-7457.535,-32130.36,-7773.255,-1447.425
356056.15499999997,-56279.61,-31929.344999999998,-32103.225,-7688.115,-32420.789999999997,-7780.139999999999,-1473.7949999999998
355985.95499999996,-56525.939999999995,-32175.495,-32239.62,-7923.87,-32511.195,-7709.58,-1490.445
355906.98,-56624.985,-32266.26,-32295.195,-7737.389999999999,-32352.48,-7726.41,-1490.2649999999999
355832.82,-56434.634999999995,-32078.07,-32218.515,-7542.045,-32239.8,-7773.57,-1504.7549999999999
355755.555,-56234.79,-31941.405,-32088.465,-7368.525,-32131.125,-7753.32,-1520.19
355685.805,-56240.595,-32028.074999999997,-31989.329999999998,-7219.304999999999,-32055.12,-7682.8949999999995,-1554.12
355638.285,-56358.045,-32186.385,-31957.065,-7372.665,-32127.614999999998,-7613.955,-1558.98
355600.485,-56637.494999999995,-32457.195,-32093.64,-7731.674999999999,-32256.989999999998,-7574.94,-1498.5449999999998
355584.32999999996,-56905.74,-32671.98,-32294.789999999997,-7647.48,-32107.23,-7595.009999999999,-1471.23
355602.64499999996,-56602.439999999995,-32287.14,-32289.93,-7603.5599999999995,-32106.195,-7724.429999999999,-1464.7949999999998
355601.88,-56328.84,-31892.265,-32157.495,-7587.495,-32136.66,-7793.415,-1472.985
355563.0,-56259.405,-31792.545,-32135.355,-7666.965,-32355.989999999998,-7867.215,-1479.645
355497.345,-56167.515,-31750.289999999997,-32154.074999999997,-7814.07,-32626.934999999998,-7958.61,-1500.9299999999998
355400.37,-56170.979999999996,-31775.76,-32149.844999999998,-7780.094999999999,-32575.274999999998,-7980.075,-1567.665
355305.32999999996,-56196.405,-31830.164999999997,-32130.899999999998,-7701.03,-32443.515,-7941.554999999999,-1588.95
355219.92,-56229.119999999995,-31841.37,-32145.434999999998,-7745.445,-32325.21,-7854.57,-1559.565
355181.13,-56016.18,-31677.975,-32025.105,-7726.679999999999,-32295.69,-7857.764999999999,-1513.935
355154.85,-55881.54,-31686.12,-31954.32,-7762.32,-32445.539999999997,-7836.57,-1503.09
355118.57999999996,-56099.07,-31930.199999999997,-31983.704999999998,-7768.889999999999,-32428.17,-7706.88,-1559.25
355061.65499999997,-56700.314999999995,-32441.985,-32227.379999999997,-7418.969999999999,-32041.8,-7574.67,-1640.0249999999999
355009.86,-56849.715,-32474.295,-32322.42,-7361.1449999999995,-32076.989999999998,-7682.219999999999,-1623.6899999999998
354963.32999999996,-56446.29,-32029.199999999997,-32178.375,-7591.59,-32357.024999999998,-7921.844999999999,-1560.5549999999998
354890.83499999996,-56062.935,-31660.695,-32015.114999999998,-7687.53,-32544.989999999998,-8043.48,-1521.405
354787.15499999997,-55940.445,-31579.155,-31983.12,-7843.905,-32672.969999999998,-8037.2699999999995,-1546.83
354664.35,-56094.884999999995,-31746.239999999998,-32056.379999999997,-7869.6449999999995,-32625.585,-7892.549999999999,-1606.05
354550.76999999996,-56365.604999999996,-32010.75,-32173.335,-7669.844999999999,-32178.465,-7689.375,-1655.1
354474.945,-56506.14,-32131.89,-32151.015,-7327.349999999999,-31853.565,-7615.215,-1697.31
354431.79,-56403.134999999995,-32048.504999999997,-32104.305,-7194.465,-31887.989999999998,-7675.2,-1682.865
354405.64499999996,-56215.619999999995,-31889.43,-32055.254999999997,-7300.485,-32050.35,-7732.799999999999,-1636.83
354374.95499999996,-56207.204999999994,-31914.629999999997,-32106.87,-7681.275,-32386.004999999997,-7769.88,-1612.935
354319.15499999997,-56353.905,-32067.045,-32154.344999999998,-7874.325,-32458.364999999998,-7696.3949999999995,-1623.78
354239.95499999996,-56528.595,-32239.754999999997,-32207.265,-7626.825,-32268.329999999998,-7709.67,-1669.77
354172.45499999996,-56261.924999999996,-31939.469999999998,-32060.745,-7642.755,-32421.51,-7858.53,-1650.0149999999999
354086.01,-56073.375,-31702.905,-31977.045,-7691.13,-32453.864999999998,-7874.594999999999,-1661.58
353981.295,-56155.185,-31790.43,-32008.545,-7586.865,-32196.69,-7720.335,-1726.74
353875.86,-56295.18,-32042.565,-32092.605,-7446.599999999999,-31985.864999999998,-7578.405,-1769.5349999999999
353808.81,-56399.174999999996,-32247.449999999997,-32129.684999999998,-7395.84,-32006.114999999998,-7569.2699999999995,-1760.895
353783.51999999996,-56534.759999999995,-32399.82,-32187.059999999998,-7305.165,-32086.754999999997,-7583.085,-1755.6299999999999
