ch_0,ch_1,ch_2,ch_3,ch_4,ch_5,ch_6,ch_7
9952.83,-14458.635,29409.075,18164.52,37739.655,18322.559999999998,26232.12,20135.7
9744.975,-14583.33,29085.75,18053.46,37177.83,17957.655,25928.1,20123.91
9744.164999999999,-14415.119999999999,29587.949999999997,17900.37,36695.88,17452.62,25593.795,19909.89
9682.02,-13693.32,30585.105,17842.77,36837.765,17287.559999999998,25419.96,19283.85
9157.859999999999,-13756.05,30663.629999999997,18057.78,37397.295,17380.395,25463.024999999998,18940.725
8831.205,-14485.14,30172.41,18220.995,38149.83,18130.95,25723.035,19056.555
9512.91,-14529.06,30216.329999999998,18125.37,38498.67,18411.885,25950.285,19567.26
9661.859999999999,-13527.765,30453.704999999998,18057.149999999998,38933.909999999996,18913.274999999998,25650.945,19207.53
9308.475,-13606.83,30491.684999999998,18270.0,39047.895,19056.6,25577.19,19195.829999999998
9111.555,-14690.789999999999,30198.149999999998,18132.75,38398.229999999996,18544.454999999998,25488.135,19723.815
9620.865,-14855.535,29987.504999999997,17728.245,37606.68,17705.655,25190.415,19929.735
9701.82,-13960.574999999999,30246.48,17513.145,37223.729999999996,17248.095,24849.27,19625.579999999998
9370.845,-13845.824999999999,30420.945,17527.184999999998,37142.235,17168.535,24897.78,19483.425
9288.63,-14255.64,30133.305,17349.885,37119.689999999995,17129.655,25022.475,19695.195
9684.494999999999,-13998.689999999999,30115.305,17402.265,37241.82,17306.73,25069.364999999998,19800.135
9602.234999999999,-14094.449999999999,29918.475,17237.07,37397.61,17588.52,25029.18,19417.77
9460.935,-14418.855,29689.469999999998,17031.51,37623.735,17827.559999999998,24795.405,19127.52
9067.68,-14400.494999999999,29631.105,17141.085,38050.56,18267.885,24823.754999999997,18736.695
8726.355,-14771.474999999999,29102.039999999997,17154.045,38191.5,18392.13,24947.64,18734.13
8931.869999999999,-14950.664999999999,28594.485,17030.88,37788.659999999996,17814.78,24771.329999999998,19053.225
8945.055,-14874.57,28884.285,17116.785,37393.155,17349.434999999998,24608.114999999998,19165.005
8667.63,-15136.019999999999,29590.11,17176.815,37144.53,17272.035,24668.594999999998,18985.41
8965.125,-15258.914999999999,29645.414999999997,16798.364999999998,36424.034999999996,16932.735,24557.76,19064.79
9025.695,-14911.515,29235.78,16578.945,35527.365,16534.934999999998,24270.03,19078.469999999998
8722.755,-14770.529999999999,28976.309999999998,16664.13,34928.549999999996,16059.555,24294.285,18760.905
8730.539999999999,-14982.93,29118.735,16665.93,34664.76,15774.93,24018.434999999998,18530.954999999998
8609.985,-15155.91,29226.465,16429.545,34709.534999999996,15911.73,23953.995,18609.12
8019.945,-15247.305,29295.405,16234.154999999999,35809.11,16305.974999999999,24182.82,18275.895
7664.04,-15366.689999999999,29439.315,16563.51,36954.135,16993.71,24089.265,17820.045
7958.5199999999995,-15390.63,29521.26,16901.505,36962.865,16864.559999999998,24037.2,17996.895
8621.324999999999,-14897.205,29642.129999999997,17023.095,36742.185,16609.86,24060.735,18431.19
8624.43,-14945.039999999999,29101.32,16527.78,36173.475,15725.205,24297.254999999997,18617.355
8263.26,-15568.244999999999,28102.635,15785.234999999999,36373.5,15903.045,24471.135,18400.32
8046.764999999999,-15936.66,27736.92,15921.045,37160.055,16780.635,24386.985,18345.555
7758.9,-16173.99,27836.954999999998,16115.805,37383.21,17200.215,24322.454999999998,17963.82
7611.884999999999,-16223.939999999999,27796.86,16264.305,37322.865,17253.809999999998,24312.51,17666.46
7573.724999999999,-16492.454999999998,28175.715,16270.244999999999,36992.924999999996,17004.96,24229.844999999998,17907.39
8056.844999999999,-16527.285,28587.69,16027.92,36292.635,16243.199999999999,24067.079999999998,18423.63
8182.304999999999,-16085.88,28695.96,15885.045,35614.395,15518.43,23941.53,18650.295
8196.119999999999,-15880.05,28248.795,15724.845,35154.405,15076.305,23921.235,18525.42
7985.835,-16020.269999999999,28015.649999999998,15756.435,35347.32,15280.965,23863.41,18045.36
7757.054999999999,-16409.16,27735.254999999997,15831.135,35496.99,15520.275,23873.085,17760.105
7660.125,-16403.76,27529.155,15797.43,35432.415,15565.545,23769.809999999998,17757.27
7693.92,-16407.0,27838.844999999998,15730.019999999999,35576.1,15752.744999999999,23567.219999999998,17735.895
7545.69,-16082.505,28636.425,15745.275,35361.945,15569.279999999999,23398.965,17591.13
7226.505,-15833.519999999999,28252.26,15442.785,35263.034999999996,15375.42,23619.6,17187.48
7016.49,-15964.109999999999,27701.82,15597.945,35981.685,16233.705,23965.739999999998,16971.795
6747.929999999999,-16747.155,27663.885,16139.474999999999,36327.375,16844.535,24026.129999999997,17173.485
6728.445,-17174.7,27877.094999999998,16077.33,35886.869999999995,16418.204999999998,23795.684999999998,17250.84
6868.844999999999,-16731.18,28061.684999999998,15713.505,35324.775,15682.455,23384.07,17109.72
6801.929999999999,-16843.815,27607.32,15427.394999999999,35317.305,15446.025,23430.87,16960.184999999998
6895.17,-16694.82,27643.23,15566.58,35352.27,15596.01,23444.684999999998,16776.405
7221.105,-16606.215,27803.745,15698.43,35088.84,15300.63,23093.684999999998,16899.66
7186.995,-16767.63,27531.629999999997,15568.695,34757.685,14945.085,22902.795,17228.43
7244.594999999999,-16816.815,27145.754999999997,15458.58,34570.665,14705.73,22820.085,17480.204999999998
7262.955,-16634.43,26787.105,15263.595,34532.369999999995,14575.769999999999,22895.504999999997,17344.62
6941.88,-16715.34,26954.325,15355.26,34796.97,14860.26,22996.44,17154.405
6757.469999999999,-17165.745,27385.469999999998,15397.92,34893.09,15053.13,22948.379999999997,17100.45
6493.905,-17499.87,27625.004999999997,15456.15,34977.24,15114.105,22916.52,16898.895
6331.005,-17290.035,27322.2,15505.244999999999,35553.555,15509.699999999999,22827.825,16515.135
6326.82,-16931.16,26963.46,15727.41,35637.659999999996,15802.605,22694.129999999997,16282.529999999999
6662.745,-17137.26,27100.89,15691.095,34483.32,15200.189999999999,22543.92,16573.005
7020.9,-17308.98,27633.78,15654.105,33541.47,14513.805,22220.504999999997,16890.524999999998
7163.37,-16832.43,27658.71,15538.635,33475.185,14051.744999999999,22152.195,16797.059999999998
6653.5199999999995,-16882.065,27284.985,15435.494999999999,34117.244999999995,14174.955,22342.274999999998,16475.445
6286.094999999999,-17226.54,27252.989999999998,15437.43,34663.68,14746.994999999999,22120.11,16457.13
6413.4,-17347.364999999998,27391.86,15324.3,34153.92,14511.105,22041.405,16769.7
6467.355,-17389.755,26532.585,14728.859999999999,33816.6,13967.144999999999,22235.355,17025.885
6153.525,-17909.82,25716.825,14521.185,34758.494999999995,14665.814999999999,22210.829999999998,16706.61
6136.605,-17729.864999999998,26472.51,15013.574999999999,35050.095,14860.035,21941.684999999998,16418.34
6384.825,-17629.02,27199.98,15412.859999999999,34912.575,14811.615,21772.754999999997,16145.73
6531.21,-17175.555,27013.635,15362.099999999999,34839.494999999995,14845.14,21628.26,16017.39
6059.7,-17649.585,26795.925,15391.574999999999,34991.82,15063.21,21574.485,16039.8
6371.55,-18014.265,26401.77,15180.885,34447.5,14629.635,21498.57,16367.984999999999
6171.705,-17555.625,26438.219999999998,15072.435,33706.395,13974.93,21348.27,16441.605
5835.51,-17840.43,26522.954999999998,14864.445,33349.994999999995,13793.984999999999,21533.94,16449.12
5830.155,-18047.7,26929.079999999998,14761.17,33388.784999999996,13927.05,21443.805,16404.434999999998
5917.86,-17477.864999999998,27189.855,14862.285,33874.515,14287.904999999999,21477.105,15967.17
5724.315,-17434.845,26715.69,15017.625,34796.43,14861.295,21596.085,15759.81
5585.804999999999,-18342.945,25851.78,15113.43,35226.09,15181.244999999999,21512.114999999998,16057.125
5859.719999999999,-19037.475,25625.204999999998,15141.33,35031.555,14930.505,21319.245,16207.019999999999
5761.665,-18005.445,26571.105,15187.095,34580.52,14465.115,21007.035,15763.769999999999
5469.75,-17259.21,26793.18,14982.57,34415.01,14497.019999999999,20987.37,15348.105
5404.724999999999,-17586.63,26347.68,14955.84,34540.244999999995,14776.38,21105.63,15423.75
5620.95,-18646.739999999998,25892.28,15025.545,34580.7,14864.13,21156.75,15859.71
6198.075,-18137.295,26138.565,15074.234999999999,34343.685,14492.025,21060.855,15957.81
5994.36,-17634.78,26453.969999999998,15138.72,34296.21,14309.685,20993.94,15910.425
5776.65,-18199.934999999998,26115.21,14909.355,34217.775,14335.875,21013.02,16125.435
5764.7699999999995,-18402.21,26303.535,14794.019999999999,34024.229999999996,14202.945,20970.315,16075.305
5833.755,-17818.065,26802.45,14900.58,33623.01,13873.68,20742.344999999998,15884.01
6069.69,-17445.195,26699.265,14903.279999999999,33130.845,13566.6,20424.96,15758.595
5964.84,-17494.515,26382.42,14797.619999999999,32861.7,13453.515,20156.76,15636.195
5721.344999999999,-18165.015,25727.715,14522.715,32972.85,13345.605,20403.45,15803.279999999999
5561.775,-18333.18,25781.579999999998,14440.455,33260.445,13512.195,20352.645,15835.859999999999
5138.28,-18198.945,26185.86,14507.91,33568.11,13744.26,20418.84,15473.97
4612.005,-18522.675,26102.879999999997,14607.63,33928.244999999995,13937.984999999999,20584.035,15364.935
4895.82,-18955.079999999998,25550.01,14618.519999999999,33621.75,13724.055,20641.23,15614.955
5227.47,-17908.2,25875.809999999998,14523.48,32760.585,13179.6,20483.91,15262.425
5337.585,-17662.095,25848.899999999998,14438.385,32513.129999999997,13118.31,20265.75,15343.38
5732.505,-19094.67,24969.645,14141.519999999999,32771.07,13258.529999999999,20309.13,15993.63
5810.219999999999,-19586.07,24928.829999999998,14121.945,33387.345,13365.494999999999,20314.71,16066.125
5580.719999999999,-18838.89,26039.745,14413.949999999999,33599.385,13349.475,19909.755,15716.654999999999
5517.36,-18351.945,26499.105,14545.035,33162.03,13215.644999999999,19632.195,15617.115
5491.08,-18188.415,26202.059999999998,14565.96,33043.635,13251.779999999999,19609.785,15478.019999999999
5408.594999999999,-18191.204999999998,25895.07,14460.66,33078.645,13295.835,19720.934999999998,15442.154999999999
4999.905,-18516.465,25863.704999999998,14499.135,33384.24,13607.01,19939.86,15246.539999999999
4677.48,-18802.305,25693.829999999998,14638.41,34013.385,14306.13,19980.495,14734.035
4770.675,-18681.21,25641.495,14820.029999999999,34159.14,14518.439999999999,19667.204999999998,14810.849999999999
5221.98,-18561.015,26071.469999999998,14756.939999999999,33607.53,13849.92,19370.969999999998,15216.48
5357.205,-18383.175,26157.78,14550.705,33249.104999999996,13215.33,19287.495,15402.779999999999
5393.025,-18042.255,25759.215,14490.855,33163.244999999995,13057.47,19470.78,15239.07
5068.485,-17758.35,25852.23,14668.47,33536.385,13549.635,19651.274999999998,14916.33
4491.855,-18709.695,25766.954999999998,14747.894999999999,33724.395,14048.64,19750.77,14908.769999999999
4971.87,-18978.3,25701.614999999998,14641.56,33097.815,13675.59,19621.305,15073.064999999999
5250.96,-18271.395,25505.145,14477.58,32592.329999999998,13336.605,19455.57,15193.664999999999
5168.474999999999,-18412.92,25134.975,14207.76,32465.43,13056.93,19480.005,15317.91
4870.26,-18643.68,25410.78,14347.08,33442.56,13396.455,19334.655,14943.285
4576.41,-19050.39,25289.774999999998,14539.23,34311.69,14078.34,19254.015,14642.55
4477.95,-19084.364999999998,25321.905,14387.715,34019.595,13959.855,19248.344999999998,14719.635
4641.389999999999,-18999.18,25573.004999999997,14277.33,33613.695,13649.76,19106.415,14829.21
4984.335,-19023.885,25368.03,14367.824999999999,33399.72,13366.619999999999,19034.505,15127.154999999999
5013.63,-18890.46,25278.434999999998,14403.6,33351.57,13301.595,18929.925,15086.025
4559.94,-18720.855,25276.41,14380.154999999999,33301.305,13283.73,18824.445,14953.635
4845.554999999999,-19096.29,24994.575,14234.085,33054.255,13045.5,18973.395,15257.609999999999
5054.8949999999995,-18931.094999999998,25776.27,14475.375,33057.27,13158.18,19097.505,14985.494999999999
5179.545,-18533.565,26129.925,14523.57,32849.775,13206.779999999999,19016.91,14968.71
5143.995,-18264.51,25669.98,14032.08,32576.399999999998,13018.68,18821.204999999998,15060.285
4840.38,-18402.12,25235.504999999997,13910.22,32855.445,12978.359999999999,18830.7,14910.66
4630.95,-19043.505,24949.754999999997,14130.494999999999,33198.255,13286.385,18822.555,14841.855
4676.804999999999,-19180.485,25115.309999999998,14275.26,32871.555,13123.484999999999,18653.085,14966.505
4909.635,-18800.82,25488.54,14336.685,32150.07,12513.06,18768.825,14995.035
4924.349999999999,-18271.934999999998,25845.57,14456.16,32026.86,12485.385,18543.96,14796.359999999999
4749.57,-18043.875,25638.614999999998,14310.539999999999,32063.94,12497.805,18454.905,14750.865
4139.37,-19067.805,24656.895,13858.019999999999,32891.895,12739.994999999999,18808.695,14841.359999999999
3967.47,-20303.28,24397.739999999998,13622.355,33729.075,13417.47,18752.535,14827.05
4457.07,-19885.005,24781.77,13819.545,33409.89,13179.689999999999,18457.2,14917.904999999999
4808.7,-19044.63,24915.465,14075.01,33031.619999999995,13055.939999999999,18368.505,14815.664999999999
4943.16,-18569.969999999998,25027.515,14095.215,32332.86,12884.894999999999,18502.559999999998,14728.095
4949.595,-18641.34,25381.934999999998,14141.475,31988.879999999997,12671.955,18131.399999999998,14735.789999999999
4933.845,-18499.364999999998,25620.614999999998,14081.76,31888.485,12145.635,17901.315,14874.795
4439.07,-19064.88,25060.32,13844.34,32622.93,12374.01,18410.85,14854.005
3466.2599999999998,-19310.399999999998,25039.8,14158.035,34000.604999999996,13710.195,18410.895,14023.484999999999
3322.4849999999997,-18962.37,25172.774999999998,14552.955,34167.284999999996,14080.095,18376.739999999998,13646.97
3894.39,-19165.5,25027.965,14495.445,33770.52,13822.92,18216.719999999998,13989.105
4120.514999999999,-19232.415,25285.004999999997,14279.67,33464.205,13639.005,18054.585,13932.63
3989.565,-18949.094999999998,25371.945,14096.97,33364.755,13611.644999999999,18179.91,13803.66
4214.88,-19283.085,24904.17,14179.455,33426.0,13567.32,18260.91,14174.955
4609.98,-19538.91,24559.335,13996.394999999999,33079.5,13085.414999999999,18056.204999999998,14725.439999999999
4809.735,-18972.63,25168.545,13925.835,32544.27,12452.085,17681.985,14841.81
4826.7,-18925.29,25246.125,13741.47,32008.86,12115.26,17793.405,15064.605
