ch_0,ch_1,ch_2,ch_3,ch_4,ch_5,ch_6,ch_7
-22548.87,-60544.619999999995,657.63,-5087.474999999999,5072.535,-11351.699999999999,-14556.105,7533.674999999999
-22543.605,-60536.97,648.63,-5102.28,5053.679999999999,-11375.414999999999,-14546.88,7519.905
-22610.879999999997,-60541.064999999995,647.91,-5105.655,5046.165,-11383.92,-14531.894999999999,7517.5199999999995
-22632.344999999998,-60561.945,638.91,-5103.2699999999995,5054.8949999999995,-11369.744999999999,-14535.765,7528.59
-22574.655,-60587.415,625.995,-5094.8099999999995,5069.745,-11352.914999999999,-14536.8,7549.155
-22557.96,-60553.215,634.41,-5090.715,5083.47,-11332.17,-14548.41,7545.825
-22551.614999999998,-60546.284999999996,637.245,-5090.8949999999995,5097.33,-11309.13,-14571.945,7529.49
-22537.62,-60544.979999999996,659.0699999999999,-5077.9349999999995,5116.1849999999995,-11290.77,-14585.265,7524.36
-22562.594999999998,-60519.555,681.66,-5064.12,5120.235,-11298.42,-14565.734999999999,7543.9349999999995
-22621.094999999998,-60574.409999999996,659.88,-5073.57,5113.575,-11303.234999999999,-14547.824999999999,7546.545
-22653.0,-60624.314999999995,638.28,-5074.065,5119.425,-11295.99,-14541.029999999999,7517.07
-22623.66,-60525.674999999996,667.89,-5072.67,5106.599999999999,-11319.164999999999,-14542.83,7512.929999999999
-22557.96,-60512.31,683.01,-5064.705,5107.365,-11318.67,-14519.205,7550.415
-22552.695,-60524.954999999994,677.745,-5071.905,5103.405,-11313.0,-14512.095,7573.545
-22506.84,-60532.11,661.095,-5085.764999999999,5084.91,-11331.449999999999,-14520.914999999999,7589.384999999999
-22546.395,-60531.075,639.18,-5082.03,5093.73,-11320.92,-14526.99,7598.07
-22572.09,-60575.49,632.2049999999999,-5073.974999999999,5117.67,-11286.539999999999,-14536.574999999999,7606.259999999999
-22544.954999999998,-60603.39,652.3199999999999,-5047.605,5146.425,-11261.205,-14545.305,7614.585
-22548.96,-60581.7,660.06,-5049.54,5136.929999999999,-11279.97,-14539.005,7614.315
-22550.535,-60556.77,657.27,-5061.78,5121.09,-11299.77,-14540.894999999999,7603.74
-22528.754999999997,-60560.145,657.54,-5068.125,5109.4349999999995,-11316.33,-14531.58,7609.23
-22490.73,-60538.229999999996,657.4499999999999,-5076.179999999999,5093.19,-11339.324999999999,-14518.08,7611.12
-22488.39,-60515.595,662.9399999999999,-5073.165,5095.17,-11335.59,-14515.154999999999,7597.844999999999
-22526.64,-60520.229999999996,670.4549999999999,-5062.275,5113.215,-11308.23,-14515.47,7598.5199999999995
-22554.765,-60536.79,656.685,-5074.92,5107.095,-11310.435,-14512.275,7595.73
-22527.585,-60528.555,660.6,-5072.49,5112.63,-11304.72,-14517.18,7592.625
-22503.96,-60507.81,667.17,-5062.5,5130.2699999999995,-11284.38,-14535.09,7598.61
-22471.515,-60506.954999999994,666.18,-5058.675,5138.054999999999,-11276.955,-14552.82,7625.07
-22455.765,-60514.92,656.685,-5064.03,5126.264999999999,-11295.945,-14541.119999999999,7662.78
-22453.965,-60497.729999999996,660.51,-5071.905,5112.135,-11315.34,-14543.595,7658.1449999999995
-22528.26,-60580.755,655.47,-5063.04,5121.045,-11309.175,-14522.265,7653.69
-22543.155,-60610.994999999995,621.9449999999999,-5096.025,5085.675,-11344.814999999999,-14501.34,7648.2
-22520.7,-60578.325,628.11,-5099.355,5077.845,-11352.914999999999,-14492.07,7642.3949999999995
-22535.235,-60569.865,637.11,-5079.24,5108.445,-11313.765,-14504.894999999999,7609.7699999999995
-22573.079999999998,-60588.18,618.435,-5087.34,5109.4349999999995,-11310.435,-14515.92,7585.605
-22572.225,-60606.0,610.605,-5088.915,5116.635,-11299.545,-14517.855,7602.525
-22511.565,-60588.225,612.09,-5085.179999999999,5126.76,-11283.164999999999,-14541.705,7618.41
-22472.55,-60529.229999999996,666.405,-5050.665,5155.11,-11257.605,-14553.945,7650.63
-22445.01,-60484.814999999995,703.98,-5037.345,5151.014999999999,-11272.545,-14536.215,7686.945
-22419.719999999998,-60451.515,704.025,-5051.34,5129.37,-11297.789999999999,-14529.6,7676.955
-22413.69,-60431.895,703.8,-5063.445,5112.045,-11318.22,-14529.914999999999,7662.195
-22404.51,-60448.005,684.4499999999999,-5072.67,5097.0599999999995,-11337.57,-14505.029999999999,7678.665
-22462.2,-60524.549999999996,656.8199999999999,-5077.349999999999,5092.83,-11339.324999999999,-14474.34,7690.32
-22498.965,-60560.369999999995,641.52,-5075.73,5105.025,-11321.055,-14480.64,7682.985
-22466.34,-60541.38,653.5799999999999,-5066.775,5117.49,-11311.064999999999,-14500.619999999999,7684.92
-22458.195,-60518.88,675.045,-5052.69,5130.945,-11296.08,-14514.48,7681.139999999999
-22466.925,-60456.104999999996,715.4549999999999,-5027.085,5155.335,-11268.18,-14525.234999999999,7690.455
-22521.465,-60484.32,724.095,-5020.29,5172.929999999999,-11245.41,-14512.275,7709.04
-22445.28,-60531.03,703.845,-5031.179999999999,5161.41,-11263.365,-14504.22,7734.0599999999995
-22365.945,-60478.92,684.63,-5043.42,5144.8949999999995,-11282.939999999999,-14510.43,7731.585
-22455.405,-60474.689999999995,672.255,-5044.905,5144.58,-11283.029999999999,-14494.904999999999,7708.005
-22448.61,-60485.625,669.735,-5060.34,5121.99,-11309.039999999999,-14481.539999999999,7698.78
-22369.905,-60507.09,659.385,-5065.5599999999995,5105.745,-11327.939999999999,-14469.795,7714.71
-22450.094999999998,-60556.77,655.47,-5045.94,5130.224999999999,-11297.115,-14456.564999999999,7740.2699999999995
-22479.075,-60538.409999999996,667.935,-5037.255,5137.875,-11288.295,-14468.58,7746.974999999999
-22442.355,-60489.0,685.845,-5039.865,5144.58,-11275.289999999999,-14489.685,7732.62
-22417.245,-60469.11,687.1949999999999,-5040.54,5166.855,-11242.8,-14513.22,7712.46
-22395.059999999998,-60459.84,698.355,-5014.08,5200.605,-11208.555,-14519.385,7718.3099999999995
-22380.66,-60446.43,720.855,-5009.264999999999,5184.36,-11238.255,-14501.519999999999,7753.905
-22420.395,-60459.659999999996,725.4,-5011.155,5166.405,-11263.14,-14485.32,7773.21
-22420.17,-60449.354999999996,705.06,-5028.57,5147.775,-11282.039999999999,-14478.975,7763.13
-22421.024999999998,-60466.005,705.15,-5022.855,5151.105,-11278.439999999999,-14450.894999999999,7765.469999999999
-22387.094999999998,-60462.854999999996,697.905,-5034.465,5136.66,-11287.395,-14432.355,7779.735
-22372.379999999997,-60424.11,714.555,-5026.139999999999,5150.07,-11269.89,-14450.13,7771.86
-22369.995,-60424.515,722.88,-5019.165,5159.205,-11262.869999999999,-14462.865,7767.179999999999
-22382.954999999998,-60413.04,738.855,-4998.78,5188.005,-11230.289999999999,-14461.109999999999,7774.695
-22448.879999999997,-60465.689999999995,740.0699999999999,-4974.615,5227.5599999999995,-11183.535,-14462.505,7781.8949999999995
-22441.545,-60488.369999999995,735.255,-4974.389999999999,5232.87,-11177.955,-14470.83,7788.509999999999
-22391.774999999998,-60466.32,747.225,-4967.28,5231.7,-11190.465,-14455.08,7805.61
-22383.045,-60441.795,740.79,-4975.29,5224.724999999999,-11195.865,-14444.955,7802.865
-22376.655,-60452.729999999996,733.275,-4973.8949999999995,5222.835,-11202.57,-14435.55,7807.365
-22349.295,-60388.875,731.97,-5003.325,5182.5599999999995,-11247.885,-14430.914999999999,7803.8099999999995
-22345.469999999998,-60376.14,733.725,-5007.014999999999,5176.71,-11253.779999999999,-14420.385,7800.299999999999
-22361.265,-60428.564999999995,734.49,-4985.37,5211.54,-11210.805,-14419.17,7791.57
-22399.739999999998,-60481.979999999996,740.97,-4969.08,5234.13,-11188.845,-14420.97,7775.054999999999
-22481.145,-60480.045,743.31,-4960.53,5252.4,-11166.615,-14425.92,7772.804999999999
-22428.945,-60380.505,782.505,-4957.2,5256.224999999999,-11160.765,-14462.82,7764.929999999999
-22397.355,-60333.615,806.355,-4945.95,5264.28,-11153.654999999999,-14464.215,7798.634999999999
-22320.989999999998,-60373.439999999995,782.55,-4950.045,5248.9349999999995,-11179.125,-14440.545,7862.219999999999
-22295.43,-60474.915,717.93,-4971.599999999999,5226.255,-11206.035,-14430.195,7881.48
-22314.285,-60417.0,732.555,-4986.2699999999995,5207.804999999999,-11222.189999999999,-14420.519999999999,7870.634999999999
-22346.594999999998,-60384.555,752.0849999999999,-4989.599999999999,5194.17,-11240.145,-14404.904999999999,7862.759999999999
-22342.905,-60382.799999999996,753.2099999999999,-4999.5,5180.355,-11253.015,-14397.705,7855.469999999999
-22335.344999999998,-60399.45,752.76,-4984.83,5206.095,-11219.355,-14399.955,7860.105
-22336.559999999998,-60388.784999999996,761.31,-4975.29,5217.66,-11208.105,-14409.99,7856.6849999999995
-22356.045,-60447.6,733.77,-4980.014999999999,5223.195,-11199.555,-14421.195,7842.105
-22358.565,-60471.854999999996,708.7049999999999,-4968.179999999999,5254.83,-11162.205,-14442.705,7815.509999999999
-22328.504999999997,-60380.595,737.01,-4957.83,5274.54,-11138.895,-14467.005,7796.835
-22336.785,-60365.115,764.685,-4924.349999999999,5307.48,-11111.22,-14450.31,7797.69
-22374.945,-60401.34,775.4399999999999,-4914.495,5312.429999999999,-11107.35,-14423.894999999999,7813.755
-22424.76,-60480.81,766.755,-4920.525,5296.1849999999995,-11127.285,-14382.225,7870.094999999999
-22341.42,-60480.945,727.29,-4961.16,5233.32,-11206.08,-14377.14,7903.3949999999995
-22259.565,-60377.67,743.265,-4990.32,5182.695,-11266.515,-14391.765,7913.07
-22293.765,-60391.439999999995,754.515,-4983.345,5198.985,-11240.145,-14394.105,7901.73
-22303.53,-60382.755,760.05,-4970.474999999999,5225.355,-11206.395,-14399.055,7887.509999999999
-22300.29,-60379.29,758.25,-4966.155,5238.2699999999995,-11187.765,-14413.275,7881.12
-22305.149999999998,-60415.38,749.0699999999999,-4960.44,5253.3,-11169.18,-14428.305,7889.67
-22300.245,-60404.534999999996,756.18,-4953.195,5260.365,-11164.365,-14441.49,7886.5199999999995
-22335.3,-60414.84,754.3349999999999,-4951.17,5253.21,-11179.98,-14430.24,7890.389999999999
-22349.34,-60438.555,737.4599999999999,-4954.139999999999,5254.335,-11181.42,-14428.755,7885.125
-22319.415,-60413.174999999996,747.0899999999999,-4959.495,5240.655,-11201.895,-14430.195,7883.1449999999995
-22330.844999999998,-60411.509999999995,745.8299999999999,-4986.9,5201.37,-11245.05,-14414.039999999999,7878.915
-22331.34,-60402.329999999994,745.11,-4994.6849999999995,5186.97,-11259.539999999999,-14403.015,7868.5199999999995
-22323.915,-60396.299999999996,749.745,-4986.54,5201.6849999999995,-11236.68,-14405.265,7868.429999999999
-22307.895,-60395.534999999996,751.185,-4979.7,5214.78,-11220.93,-14408.685,7880.535
-22310.864999999998,-60388.064999999995,751.185,-4975.605,5229.855,-11198.97,-14430.42,7870.5
-22302.27,-60363.99,753.7049999999999,-4976.415,5244.615,-11177.234999999999,-14461.154999999999,7852.32
-22248.719999999998,-60284.564999999995,787.3199999999999,-4959.945,5260.275,-11166.48,-14483.789999999999,7848.719999999999
-22236.614999999998,-60278.49,809.37,-4952.115,5253.165,-11186.1,-14481.99,7843.049999999999
-22326.57,-60362.235,799.3349999999999,-4941.09,5267.835,-11170.215,-14460.615,7826.985
-22466.79,-60508.35,735.48,-4944.87,5276.565,-11153.52,-14407.335,7858.844999999999
-22389.39,-60515.865,685.2149999999999,-4996.44,5207.804999999999,-11231.279999999999,-14406.029999999999,7874.91
-22351.635,-60437.79,718.38,-5008.905,5179.23,-11268.18,-14416.92,7864.785
-22356.719999999998,-60454.439999999995,725.985,-4988.295,5207.804999999999,-11235.869999999999,-14420.88,7861.455
-22365.809999999998,-60498.899999999994,683.91,-5009.625,5196.51,-11242.215,-14430.869999999999,7868.07
-22345.02,-60482.024999999994,692.01,-5012.054999999999,5195.97,-11241.63,-14451.029999999999,7876.71
-22278.149999999998,-60382.89,713.88,-5002.47,5206.095,-11236.14,-14481.135,7882.5599999999995
-22293.629999999997,-60397.2,725.0849999999999,-4996.17,5210.6849999999995,-11237.039999999999,-14493.105,7881.705
-22319.145,-60440.759999999995,708.7049999999999,-5004.855,5199.48,-11252.564999999999,-14481.585,7880.58
-22343.535,-60458.895,695.52,-5016.554999999999,5195.5199999999995,-11236.32,-14478.119999999999,7862.985
-22320.989999999998,-60434.369999999995,717.885,-5017.005,5165.37,-11250.9,-14465.115,7868.115
-22309.065,-60431.13,699.93,-5052.465,5104.71,-11319.029999999999,-14453.82,7871.085
-22305.42,-60431.445,691.6949999999999,-5086.665,5053.095,-11385.765,-14439.689999999999,7876.485
-22293.495,-60417.0,694.62,-5095.62,5066.595,-11373.39,-14436.0,7876.125
-22317.3,-60432.704999999994,701.055,-5028.795,5197.32,-11268.765,-14450.715,7850.655
-22359.51,-60474.915,697.4549999999999,-4957.47,5299.425,-11158.199999999999,-14478.705,7821.585
-22373.055,-60488.415,689.67,-4961.745,5295.285,-11145.51,-14495.355,7819.38
-22350.69,-60463.17,702.63,-4975.0199999999995,5274.54,-11164.904999999999,-14504.67,7833.509999999999
-22313.745,-60435.18,712.7099999999999,-4978.8,5257.125,-11192.625,-14497.109999999999,7846.38
-22304.969999999998,-60429.375,700.38,-4993.38,5239.665,-11207.97,-14498.189999999999,7833.15
-22278.285,-60408.674999999996,697.3199999999999,-5013.495,5213.429999999999,-11239.515,-14498.46,7828.83
-22329.18,-60414.975,690.165,-5028.4349999999995,5190.21,-11270.744999999999,-14477.175,7833.554999999999
-22354.515,-60456.42,671.67,-5046.705,5163.21,-11300.265,-14471.414999999999,7839.045
-22365.315,-60505.155,647.8199999999999,-5064.389999999999,5152.679999999999,-11303.369999999999,-14490.18,7831.62
-22368.555,-60515.28,655.3349999999999,-5060.205,5160.78,-11293.695,-14505.074999999999,7814.25
-22433.04,-60517.35,660.375,-5043.0599999999995,5192.1449999999995,-11251.845,-14505.119999999999,7807.005
-22448.79,-60539.985,654.615,-5034.24,5221.62,-11206.935,-14525.055,7804.259999999999
-22384.844999999998,-60529.454999999994,643.995,-5047.11,5209.2,-11217.42,-14563.439999999999,7809.389999999999
-22322.024999999998,-60468.165,654.66,-5068.44,5172.705,-11264.4,-14566.68,7826.804999999999
-22309.605,-60467.49,634.4549999999999,-5122.845,5091.48,-11345.13,-14559.48,7840.259999999999
-22334.985,-60490.979999999996,620.595,-5147.415,5040.135,-11391.119999999999,-14559.345,7827.255
-22382.19,-60520.905,620.505,-5130.0,5048.46,-11402.865,-14538.644999999999,7805.07
-22387.545,-60526.71,613.7099999999999,-5129.325,5060.745,-11403.765,-14532.525,7787.79
-22361.579999999998,-60514.02,609.48,-5121.045,5104.26,-11362.455,-14537.025,7786.44
-22397.985,-60531.57,602.64,-5097.69,5150.205,-11319.57,-14548.275,7767.045
-22434.795,-60548.805,598.68,-5080.86,5173.514999999999,-11287.439999999999,-14568.029999999999,7739.955
-22429.8,-60562.395,596.25,-5085.2699999999995,5173.605,-11273.715,-14598.449999999999,7722.0
-22396.5,-60560.505,592.155,-5089.05,5171.22,-11274.885,-14619.42,7723.304999999999
-22395.059999999998,-60563.79,588.3299999999999,-5094.54,5160.285,-11291.039999999999,-14606.234999999999,7734.0599999999995
-22395.149999999998,-60546.645,584.73,-5121.405,5122.17,-11334.465,-14613.885,7732.3949999999995
