ch_0,ch_1,ch_2,ch_3,ch_4,ch_5,ch_6,ch_7
12895.785,-18657.945,-26120.024999999998,7665.12,-27119.52,-28726.02,-19513.485,-29436.344999999998
12879.539999999999,-18681.12,-26135.91,7649.054999999999,-27140.085,-28729.125,-19517.895,-29446.245
12884.984999999999,-18680.625,-26133.57,7651.08,-27145.079999999998,-28727.28,-19520.64,-29450.879999999997
12908.97,-18667.934999999998,-26129.52,7658.325,-27135.765,-28727.73,-19524.42,-29444.265
12917.925,-18658.53,-26125.289999999997,7673.3099999999995,-27120.87,-28726.559999999998,-19522.934999999998,-29438.235
12899.97,-18668.52,-26132.355,7671.735,-27124.739999999998,-28732.05,-19527.48,-29446.965
12890.609999999999,-18683.954999999998,-26147.52,7660.799999999999,-27128.25,-28730.295,-19521.27,-29447.954999999998
12891.914999999999,-18689.94,-26154.405,7653.33,-27135.405,-28737.539999999997,-19525.454999999998,-29455.245
12911.31,-18667.125,-26142.164999999997,7661.474999999999,-27134.325,-28738.215,-19528.2,-29452.274999999998
12928.32,-18643.59,-26129.475,7666.2,-27136.305,-28734.434999999998,-19527.39,-29452.68
12913.875,-18655.515,-26135.864999999998,7660.665,-27141.524999999998,-28728.945,-19521.719999999998,-29459.43
12896.685,-18679.094999999998,-26151.48,7659.855,-27138.78,-28723.14,-19516.23,-29462.265
12864.06,-18702.495,-26181.135,7646.535,-27148.545,-28721.295,-19514.79,-29476.89
12844.935,-18706.59,-26191.17,7638.075,-27157.815,-28731.105,-19523.475,-29491.829999999998
12826.305,-18718.29,-26180.864999999998,7641.8099999999995,-27150.21,-28730.34,-19520.594999999998,-29492.954999999998
12844.394999999999,-18710.145,-26152.739999999998,7650.2699999999995,-27152.504999999997,-28724.579999999998,-19523.43,-29482.289999999997
12838.41,-18734.76,-26175.645,7620.165,-27185.175,-28717.785,-19513.934999999998,-29473.649999999998
12882.824999999999,-18726.03,-26188.92,7605.585,-27192.825,-28728.585,-19524.239999999998,-29463.03
12936.6,-18660.239999999998,-26146.17,7660.215,-27142.965,-28748.114999999998,-19545.434999999998,-29458.71
13003.56,-18581.219999999998,-26098.92,7711.92,-27095.085,-28757.969999999998,-19558.755,-29451.059999999998
12977.775,-18570.195,-26072.91,7726.455,-27091.305,-28743.254999999997,-19548.405,-29457.629999999997
12944.744999999999,-18602.91,-26091.0,7710.389999999999,-27104.175,-28734.03,-19540.665,-29466.855
12926.025,-18640.035,-26121.6,7680.735,-27120.645,-28733.489999999998,-19532.295,-29471.535
12907.89,-18668.34,-26144.46,7658.82,-27146.34,-28736.37,-19531.62,-29480.715
12903.84,-18688.635,-26166.195,7639.245,-27163.844999999998,-28730.745,-19526.985,-29482.289999999997
12896.234999999999,-18706.23,-26184.51,7630.695,-27161.954999999998,-28720.079999999998,-19519.155,-29483.73
12878.01,-18721.89,-26209.485,7618.23,-27156.69,-28719.765,-19514.34,-29487.6
12851.505,-18750.015,-26215.2,7622.415,-27149.355,-28722.87,-19520.055,-29503.035
12836.97,-18762.12,-26204.175,7632.8099999999995,-27142.739999999998,-28726.469999999998,-19525.184999999998,-29516.579999999998
12877.56,-18723.375,-26154.539999999997,7655.535,-27136.934999999998,-28739.565,-19540.079999999998,-29506.23
12915.18,-18672.885,-26110.305,7702.335,-27112.77,-28738.754999999997,-19541.655,-29489.579999999998
12924.225,-18639.495,-26107.605,7699.275,-27118.215,-28733.85,-19541.969999999998,-29487.465
12917.835,-18628.245,-26122.545,7673.4,-27137.969999999998,-28732.454999999998,-19539.135,-29491.155
12918.555,-18644.715,-26144.954999999998,7669.665,-27132.39,-28731.87,-19540.98,-29494.53
12919.32,-18651.6,-26132.94,7681.41,-27119.114999999998,-28728.899999999998,-19542.015,-29495.385
12920.22,-18642.329999999998,-26110.98,7689.285,-27119.295,-28729.89,-19538.774999999998,-29491.92
12906.72,-18612.719999999998,-26089.11,7697.565,-27123.614999999998,-28739.565,-19543.995,-29503.62
12883.095,-18629.37,-26106.344999999998,7688.88,-27132.254999999997,-28741.995,-19542.69,-29511.765
12864.555,-18650.565,-26123.265,7686.045,-27132.524999999998,-28732.635,-19534.995,-29518.605
12858.074999999999,-18664.965,-26131.32,7692.03,-27130.004999999997,-28728.405,-19536.12,-29526.93
12896.144999999999,-18664.155,-26138.52,7685.594999999999,-27138.105,-28733.535,-19537.155,-29514.105
12912.75,-18662.94,-26141.129999999997,7685.235,-27133.515,-28731.015,-19532.655,-29510.864999999998
12899.43,-18688.815,-26169.66,7661.5199999999995,-27136.664999999997,-28728.27,-19531.844999999998,-29519.504999999997
12886.92,-18692.82,-26173.844999999998,7639.0199999999995,-27146.969999999998,-28727.145,-19531.755,-29520.405
12878.685,-18689.715,-26161.155,7645.679999999999,-27150.48,-28734.75,-19532.34,-29527.065
12898.71,-18673.155,-26156.969999999998,7653.15,-27147.329999999998,-28738.44,-19534.005,-29520.899999999998
12939.615,-18627.12,-26122.59,7674.615,-27140.175,-28733.579999999998,-19533.69,-29504.024999999998
12917.835,-18659.07,-26144.055,7666.0199999999995,-27138.195,-28727.504999999997,-19528.38,-29507.94
12895.154999999999,-18660.915,-26130.555,7673.804999999999,-27134.73,-28736.28,-19534.32,-29522.565
12904.74,-18637.695,-26108.28,7677.224999999999,-27136.754999999997,-28736.82,-19533.825,-29521.71
12899.16,-18641.295,-26104.364999999998,7683.66,-27131.489999999998,-28738.664999999997,-19538.01,-29528.19
12887.55,-18659.52,-26112.645,7684.155,-27134.19,-28729.53,-19527.165,-29528.414999999997
12864.105,-18690.255,-26152.155,7651.98,-27157.905,-28727.235,-19522.44,-29531.969999999998
12859.56,-18709.965,-26176.32,7637.4,-27164.789999999997,-28728.585,-19528.29,-29539.079999999998
12902.445,-18686.204999999998,-26158.77,7652.5199999999995,-27147.329999999998,-28725.795,-19530.855,-29530.89
12924.404999999999,-18658.755,-26117.414999999997,7679.115,-27126.09,-28720.305,-19534.68,-29534.85
12907.619999999999,-18641.34,-26090.145,7680.509999999999,-27133.829999999998,-28733.579999999998,-19532.385,-29535.93
12891.644999999999,-18639.135,-26071.785,7694.19,-27128.969999999998,-28745.28,-19537.38,-29544.344999999998
12902.984999999999,-18636.48,-26071.289999999997,7699.679999999999,-27124.155,-28746.719999999998,-19539.09,-29540.07
12907.89,-18658.035,-26111.204999999998,7673.04,-27139.184999999998,-28742.265,-19535.265,-29532.96
12906.225,-18649.53,-26109.09,7663.545,-27149.985,-28736.954999999998,-19528.335,-29533.635
12913.154999999999,-18638.235,-26087.039999999997,7680.735,-27139.41,-28738.215,-19530.54,-29533.635
12902.355,-18657.27,-26085.87,7692.929999999999,-27131.309999999998,-28736.19,-19532.43,-29543.039999999997
12913.38,-18663.255,-26091.405,7697.16,-27129.69,-28732.454999999998,-19532.34,-29538.539999999997
12912.84,-18673.92,-26106.434999999998,7682.4,-27129.555,-28722.149999999998,-19523.114999999998,-29532.6
12903.66,-18684.27,-26106.434999999998,7677.045,-27122.895,-28714.77,-19519.515,-29536.605
12894.48,-18687.285,-26110.71,7673.759999999999,-27127.71,-28715.94,-19519.469999999998,-29542.995
12886.74,-18685.844999999998,-26122.95,7662.78,-27135.225,-28725.795,-19529.235,-29549.655
12879.585,-18661.725,-26105.94,7677.45,-27130.454999999998,-28734.075,-19534.454999999998,-29554.425
12882.555,-18636.795,-26070.254999999997,7679.384999999999,-27145.98,-28750.545,-19539.225,-29560.725
12925.529999999999,-18616.905,-26048.204999999998,7682.535,-27142.695,-28744.289999999997,-19539.0,-29547.36
12948.93,-18599.67,-26034.03,7704.99,-27123.254999999997,-28732.68,-19537.29,-29543.085
12944.43,-18594.899999999998,-26021.789999999997,7725.195,-27112.905,-28726.289999999997,-19531.98,-29546.954999999998
12911.984999999999,-18631.53,-26044.245,7713.134999999999,-27122.535,-28725.48,-19529.864999999998,-29558.969999999998
12875.535,-18672.075,-26070.704999999998,7690.634999999999,-27133.875,-28720.44,-19521.495,-29567.745
12865.635,-18684.63,-26083.26,7684.335,-27138.78,-28716.614999999998,-19514.16,-29572.379999999997
12896.46,-18661.545,-26081.91,7684.155,-27137.385,-28717.92,-19520.145,-29569.635
12940.605,-18636.39,-26073.315,7682.13,-27137.475,-28725.795,-19530.09,-29555.82
12926.88,-18633.915,-26063.91,7691.625,-27129.465,-28727.37,-19532.204999999998,-29562.75
12914.1,-18648.315,-26066.745,7682.445,-27132.03,-28719.855,-19522.575,-29563.739999999998
12881.43,-18690.704999999998,-26090.504999999997,7678.17,-27139.23,-28714.815,-19516.094999999998,-29572.199999999997
12855.33,-18717.75,-26108.414999999997,7674.4349999999995,-27144.045,-28715.399999999998,-19519.469999999998,-29583.945
12845.34,-18732.42,-26119.305,7664.13,-27157.77,-28725.39,-19521.315,-29593.125
12853.305,-18703.17,-26100.899999999998,7671.105,-27161.28,-28739.34,-19530.989999999998,-29601.539999999997
12873.195,-18672.93,-26118.045,7635.915,-27171.18,-28737.495,-19526.175,-29593.53
12889.305,-18646.829999999998,-26109.36,7636.275,-27166.094999999998,-28731.329999999998,-19524.69,-29590.289999999997
12922.019999999999,-18619.92,-26074.035,7669.53,-27145.305,-28729.35,-19533.42,-29583.539999999997
12935.835,-18604.844999999998,-26043.75,7703.325,-27122.579999999998,-28735.379999999997,-19539.675,-29578.545
12921.21,-18606.195,-26031.6,7716.195,-27121.5,-28740.6,-19536.75,-29586.69
12929.715,-18603.989999999998,-26041.004999999997,7702.965,-27132.254999999997,-28740.645,-19534.68,-29584.395
12944.43,-18587.565,-26031.105,7710.57,-27124.289999999997,-28732.95,-19529.774999999998,-29576.655
12934.26,-18598.274999999998,-26035.92,7711.424999999999,-27123.434999999998,-28731.059999999998,-19529.505,-29580.93
12882.465,-18636.255,-26053.92,7706.07,-27126.539999999997,-28719.495,-19522.395,-29596.815
12860.82,-18665.145,-26065.035,7692.255,-27139.364999999998,-28711.305,-19513.98,-29600.19
12851.64,-18704.204999999998,-26095.635,7668.315,-27157.95,-28708.289999999997,-19509.704999999998,-29606.805
12891.33,-18714.645,-26123.535,7646.535,-27170.64,-28704.015,-19502.954999999998,-29595.239999999998
12882.33,-18724.364999999998,-26125.02,7647.884999999999,-27164.745,-28711.17,-19503.405,-29597.94
12903.57,-18702.989999999998,-26107.155,7666.38,-27142.02,-28722.105,-19514.655,-29593.215
12925.484999999999,-18632.25,-26042.445,7714.844999999999,-27112.454999999998,-28737.045,-19531.665,-29595.375
12942.314999999999,-18581.94,-26007.254999999997,7732.755,-27111.42,-28745.594999999998,-19539.945,-29594.385
12940.83,-18577.44,-26010.0,7725.285,-27108.18,-28735.605,-19533.645,-29594.07
12913.83,-18610.605,-26030.745,7709.985,-27117.945,-28723.905,-19524.69,-29602.305
12888.585,-18648.27,-26054.64,7696.215,-27129.69,-28718.64,-19515.69,-29604.87
12852.0,-18681.795,-26078.445,7681.41,-27136.17,-28717.425,-19516.59,-29623.725
12861.585,-18665.64,-26067.735,7696.304999999999,-27121.77,-28712.61,-19517.94,-29626.695
12916.26,-18630.36,-26051.85,7703.6849999999995,-27123.03,-28725.12,-19528.29,-29611.44
12978.72,-18586.44,-26027.774999999998,7720.245,-27118.395,-28729.575,-19530.36,-29591.954999999998
12950.01,-18609.12,-26036.55,7713.0,-27122.175,-28728.315,-19524.195,-29604.69
12927.6,-18635.895,-26057.114999999998,7693.83,-27134.28,-28731.015,-19520.325,-29609.73
12926.835,-18637.155,-26055.18,7686.224999999999,-27143.055,-28728.18,-19513.8,-29605.635
12919.275,-18631.844999999998,-26047.035,7689.42,-27145.17,-28730.385,-19516.815,-29612.114999999998
12909.33,-18633.239999999998,-26042.76,7697.61,-27138.465,-28733.625,-19526.219999999998,-29625.164999999997
12902.805,-18652.274999999998,-26056.17,7701.12,-27137.879999999997,-28726.739999999998,-19523.52,-29628.899999999998
12902.85,-18666.405,-26094.059999999998,7689.33,-27145.53,-28718.504999999997,-19512.989999999998,-29622.824999999997
12882.555,-18690.57,-26127.09,7668.179999999999,-27154.26,-28712.789999999997,-19500.344999999998,-29621.295
12863.25,-18707.04,-26143.92,7643.969999999999,-27156.285,-28714.094999999998,-19506.195,-29633.985
12889.71,-18667.395,-26106.57,7670.25,-27128.879999999997,-28714.05,-19516.14,-29631.195
12925.439999999999,-18608.175,-26053.605,7714.08,-27106.335,-28732.23,-19534.23,-29626.965
12939.705,-18565.739999999998,-26020.125,7739.865,-27101.024999999998,-28733.895,-19532.024999999998,-29624.489999999998
12961.17,-18559.844999999998,-26023.59,7745.67,-27102.465,-28729.17,-19524.105,-29611.395
12948.93,-18596.969999999998,-26056.53,7726.41,-27111.42,-28719.855,-19510.29,-29605.14
12917.609999999999,-18631.98,-26078.985,7712.955,-27121.95,-28721.969999999998,-19512.045,-29619.0
12902.625,-18644.715,-26083.079999999998,7717.32,-27117.36,-28716.12,-19512.225,-29624.355
12895.154999999999,-18655.829999999998,-26099.28,7708.094999999999,-27124.559999999998,-28716.075,-19509.255,-29632.68
12910.68,-18649.53,-26109.045,7703.099999999999,-27131.265,-28717.425,-19511.864999999998,-29634.795
12914.46,-18640.575,-26104.454999999998,7707.285,-27125.594999999998,-28709.774999999998,-19506.78,-29627.91
12897.945,-18641.79,-26104.905,7702.785,-27136.71,-28715.039999999997,-19505.295,-29629.754999999997
12875.31,-18656.46,-26121.87,7691.445,-27145.17,-28714.545,-19504.035,-29636.28
12847.5,-18684.63,-26144.91,7668.134999999999,-27154.53,-28713.239999999998,-19503.045,-29653.695
12866.984999999999,-18669.645,-26133.57,7677.179999999999,-27148.815,-28713.42,-19503.899999999998,-29650.094999999998
12897.855,-18630.405,-26114.309999999998,7687.98,-27146.745,-28735.11,-19517.579999999998,-29641.905
12926.07,-18603.899999999998,-26103.465,7699.724999999999,-27134.684999999998,-28732.77,-19520.954999999998,-29625.66
12920.984999999999,-18616.815,-26107.605,7698.6449999999995,-27135.539999999997,-28717.469999999998,-19511.73,-29630.114999999998
12914.1,-18639.855,-26125.289999999997,7696.17,-27136.395,-28707.03,-19502.91,-29632.004999999997
12929.31,-18637.38,-26133.57,7689.509999999999,-27132.48,-28712.385,-19509.885,-29627.82
12943.845,-18602.46,-26110.305,7709.804999999999,-27116.28,-28715.355,-19514.745,-29627.774999999998
12957.885,-18593.73,-26100.27,7730.19,-27093.87,-28715.805,-19514.43,-29623.004999999997
12947.58,-18608.489999999998,-26103.285,7730.73,-27103.094999999998,-28721.7,-19516.68,-29627.64
12924.045,-18608.175,-26101.395,7728.299999999999,-27119.655,-28722.555,-19509.255,-29634.39
12915.359999999999,-18617.895,-26116.695,7714.799999999999,-27129.555,-28718.594999999998,-19500.614999999998,-29632.14
12911.445,-18630.315,-26132.489999999998,7701.705,-27124.739999999998,-28715.579999999998,-19500.885,-29636.954999999998
12911.894999999999,-18630.225,-26137.44,7706.295,-27117.855,-28719.539999999997,-19507.995,-29644.469999999998
12919.41,-18627.885,-26139.149999999998,7706.115,-27122.579999999998,-28720.98,-19515.059999999998,-29652.254999999997
12926.97,-18620.28,-26122.815,7709.264999999999,-27119.745,-28714.815,-19514.925,-29647.98
12925.394999999999,-18631.305,-26117.82,7710.48,-27118.395,-28712.385,-19517.895,-29648.024999999998
12918.42,-18623.475,-26108.954999999998,7709.94,-27129.96,-28709.774999999998,-19508.489999999998,-29648.879999999997
12902.039999999999,-18639.045,-26128.079999999998,7684.245,-27155.114999999998,-28711.98,-19501.155,-29653.335
12888.135,-18679.545,-26156.565,7656.57,-27161.504999999997,-28710.27,-19499.04,-29654.73
12902.76,-18669.285,-26143.245,7671.195,-27140.445,-28716.48,-19511.505,-29652.614999999998
12931.605,-18605.745,-26101.035,7722.134999999999,-27104.085,-28720.395,-19517.445,-29646.675
