ch_0,ch_1,ch_2,ch_3,ch_4,ch_5,ch_6,ch_7
8476.154999999999,-15442.605,28284.975,18442.17,37957.68,17284.184999999998,31236.524999999998,18129.96
8486.01,-15430.635,28330.515,18508.635,37681.92,17360.684999999998,31243.094999999998,18143.954999999998
8503.11,-15397.019999999999,28366.155,18506.79,37494.27,17227.485,31260.645,18159.524999999998
8524.755,-15343.019999999999,28397.475,18504.405,37597.545,17372.114999999998,31253.535,18144.855
8552.925,-15303.51,28472.579999999998,18609.93,37662.21,17526.555,31235.67,18160.425
8632.98,-15294.015,28424.879999999997,18507.059999999998,36955.485,17226.27,31266.629999999997,18257.13
8709.255,-15240.779999999999,28388.835,18352.53,36201.96,17017.11,31224.78,18307.844999999998
8605.26,-15319.89,28296.0,18200.07,36882.72,16885.26,31214.52,18234.585
8476.02,-15402.375,28362.825,18531.495,37788.479999999996,17097.795,31202.684999999998,18118.485
8488.529999999999,-15375.689999999999,28423.079999999998,18635.265,37814.22,17276.76,31219.785,18144.135
8520.615,-15344.369999999999,28441.485,18646.785,38049.39,17574.66,31244.76,18150.975
8518.05,-15404.445,28328.67,18540.945,37786.95,17460.09,31234.41,18166.95
8525.16,-15415.335,28286.82,18416.835,37204.244999999995,17198.415,31252.995,18224.82
8511.84,-15383.744999999999,28347.57,18458.82,37493.729999999996,17217.225,31251.105,18189.36
8467.695,-15420.824999999999,28346.399999999998,18518.76,37912.59,17429.22,31235.039999999997,18139.05
8485.605,-15441.66,28299.239999999998,18469.035,37680.795,17333.01,31238.504999999997,18171.855
8514.135,-15383.88,28351.934999999998,18490.005,37602.405,17435.07,31225.59,18161.505
8541.18,-15375.285,28322.055,18401.399999999998,37417.185,17441.28,31219.92,18171.45
8574.345,-15376.185,28299.059999999998,18345.735,37174.5,17071.335,31242.824999999997,18221.805
8555.49,-15374.205,28322.055,18413.864999999998,37463.445,17195.445,31248.809999999998,18203.219999999998
8501.13,-15420.06,28300.95,18458.055,37620.494999999995,17256.329999999998,31260.285,18174.329999999998
8465.49,-15390.314999999999,28352.114999999998,18513.135,37492.784999999996,17358.255,31261.635,18140.309999999998
8544.195,-15344.505,28358.145,18461.88,37139.715,17131.005,31264.559999999998,18199.305
8541.045,-15385.994999999999,28253.879999999997,18278.19,37207.125,17108.91,31256.91,18188.82
8495.369999999999,-15422.265,28266.21,18371.475,37494.99,17259.885,31242.015,18158.265
8496.81,-15402.42,28350.855,18514.98,37586.025,17277.66,31252.68,18174.645
8498.744999999999,-15409.89,28334.745,18484.875,37539.585,17288.145,31256.594999999998,18161.1
8536.365,-15339.15,28362.735,18467.28,37390.14,17292.96,31252.094999999998,18154.53
8563.005,-15339.33,28333.62,18391.14,37260.405,17253.45,31250.879999999997,18197.37
8549.324999999999,-15353.279999999999,28324.53,18392.085,37264.409999999996,17055.945,31258.934999999998,18220.86
8475.119999999999,-15430.635,28284.21,18448.155,37536.975,17259.75,31256.28,18158.355
8491.59,-15405.885,28322.01,18502.785,37612.71,17332.605,31262.129999999997,18153.855
8504.55,-15408.09,28294.785,18435.329999999998,37466.415,17255.16,31270.094999999998,18167.805
8537.535,-15394.769999999999,28288.844999999998,18385.829999999998,37362.284999999996,17196.48,31270.454999999998,18200.655
8537.355,-15375.644999999999,28329.704999999998,18438.614999999998,37363.86,17226.855,31260.105,18198.18
8496.135,-15403.59,28316.925,18445.14,37472.354999999996,17292.645,31267.8,18173.295
8500.725,-15386.715,28337.219999999998,18451.215,37454.354999999996,17289.855,31251.78,18182.34
8533.485,-15388.56,28326.96,18437.175,37215.27,17163.945,31246.785,18201.96
8603.01,-15357.33,28304.91,18373.5,37248.705,17134.559999999998,31225.905,18204.57
8660.97,-15270.48,28361.61,18371.25,37197.405,17143.335,31202.594999999998,18225.989999999998
8585.369999999999,-15321.644999999999,28347.344999999998,18355.005,37138.545,17022.87,31246.559999999998,18231.93
8485.695,-15393.555,28345.635,18495.09,37612.53,17232.75,31251.149999999998,18148.32
8525.115,-15404.31,28301.085,18416.88,37520.595,17290.53,31251.195,18183.69
8534.97,-15390.765,28301.085,18403.065,37530.27,17279.954999999998,31246.155,18198.36
8529.885,-15394.68,28274.399999999998,18333.63,37402.83,17237.204999999998,31235.129999999997,18208.755
8542.125,-15370.65,28320.03,18351.27,37327.59,17170.47,31219.245,18200.7
8522.73,-15382.664999999999,28354.725,18436.32,37336.86,17211.285,31225.995,18179.82
8522.324999999999,-15390.72,28319.76,18396.495,37456.47,17290.8,31211.594999999998,18171.855
8540.955,-15384.285,28293.795,18358.02,37363.049999999996,17170.245,31219.785,18199.934999999998
8591.085,-15336.18,28331.73,18357.3,37170.54,17163.18,31222.079999999998,18208.62
8574.21,-15382.305,28300.995,18353.61,37343.205,17119.395,31217.535,18201.059999999998
8577.855,-15308.234999999999,28364.85,18408.645,37563.795,17250.21,31199.085,18179.145
8604.81,-15254.279999999999,28407.375,18425.835,37513.35,17218.26,31190.129999999997,18204.66
8562.51,-15333.66,28358.055,18412.92,37481.22,17257.41,31206.96,18191.7
8543.744999999999,-15376.455,28321.695,18389.385,37463.625,17258.22,31197.51,18201.285
8539.289999999999,-15360.39,28338.48,18415.844999999998,37513.305,17317.485,31189.949999999997,18193.815
8550.135,-15329.295,28385.504999999997,18443.835,37465.695,17364.149999999998,31181.219999999998,18189.585
8446.68,-15459.705,28264.41,18330.03,37369.439999999995,17192.61,31183.335,18186.614999999998
8316.63,-15469.38,28278.315,18361.395,37444.814999999995,17170.02,31208.309999999998,18148.59
8352.9,-15388.38,28355.625,18419.489999999998,37454.985,17340.524999999998,31211.684999999998,18121.995
8522.775,-15310.439999999999,28382.985,18410.535,37097.64,17126.46,31184.01,18193.86
8670.6,-15223.095,28399.32,18321.48,36835.064999999995,17003.52,31187.969999999998,18250.605
8726.535,-15257.295,28365.254999999997,18271.305,37082.07,17088.434999999998,31170.96,18247.59
8682.615,-15305.894999999999,28371.42,18373.23,37461.915,17142.524999999998,31128.344999999998,18229.68
8621.279999999999,-15350.13,28321.469999999998,18349.155,37599.165,17203.86,31165.605,18220.635
8664.21,-15267.96,28391.175,18411.434999999998,37559.07,17245.26,31157.774999999998,18229.77
8608.32,-15338.295,28357.92,18403.245,37393.424999999996,17238.825,31159.53,18227.16
8541.675,-15404.67,28326.015,18407.969999999998,37446.705,17283.915,31157.82,18193.68
8549.82,-15364.845,28321.605,18348.66,37503.854999999996,17171.055,31166.82,18192.645
8526.96,-15381.359999999999,28326.149999999998,18364.23,37539.494999999995,17243.145,31164.21,18190.17
8504.324999999999,-15436.98,28274.579999999998,18336.51,37534.005,17258.22,31155.12,18189.855
8519.445,-15416.505,28283.895,18336.239999999998,37507.86,17250.66,31160.25,18184.545
8481.555,-15464.654999999999,28249.739999999998,18294.075,37436.354999999996,17251.785,31200.12,18174.69
8507.25,-15434.099999999999,28271.655,18308.745,37339.65,17230.725,31188.42,18200.79
8536.59,-15393.555,28303.469999999998,18314.505,37388.924999999996,17225.1,31176.36,18203.67
8564.039999999999,-15384.779999999999,28284.614999999998,18274.454999999998,37496.88,17239.095,31169.61,18219.915
8627.58,-15278.445,28356.885,18274.59,37321.11,17199.36,31181.129999999997,18230.715
8605.485,-15285.644999999999,28368.36,18275.399999999998,37340.505,17175.195,31193.145,18206.37
8563.904999999999,-15305.805,28415.61,18409.274999999998,37395.18,17200.755,31164.93,18189.809999999998
8579.654999999999,-15300.945,28380.914999999997,18341.055,37234.26,17109.899999999998,31169.204999999998,18226.17
8586.765,-15313.545,28342.89,18280.125,37397.61,17221.005,31174.335,18211.094999999998
8588.52,-15329.654999999999,28345.454999999998,18302.985,37465.695,17248.005,31164.48,18203.985
8559.27,-15345.09,28348.695,18319.41,37555.65,17243.28,31166.73,18183.42
8581.635,-15338.205,28334.07,18299.61,37498.095,17210.97,31167.36,18202.905
8644.545,-15303.15,28324.079999999998,18254.475,37419.84,17184.825,31145.67,18243.585
8651.52,-15295.14,28324.17,18221.579999999998,37284.975,17148.329999999998,31159.574999999997,18261.54
8586.855,-15323.715,28324.125,18209.16,37155.284999999996,17126.37,31183.199999999997,18244.305
8573.31,-15337.08,28348.469999999998,18277.965,37488.24,17235.36,31156.515,18202.905
8586.855,-15308.144999999999,28393.379999999997,18359.145,37635.705,17321.895,31154.309999999998,18178.515
8652.96,-15255.135,28400.715,18295.425,37342.35,17149.545,31157.46,18225.989999999998
8644.635,-15274.17,28332.989999999998,18138.51,37005.885,16991.46,31183.245,18259.695
8547.66,-15331.994999999999,28372.274999999998,18275.805,37472.22,17249.445,31168.934999999998,18182.745
8563.365,-15323.265,28399.905,18347.13,37603.485,17242.11,31168.53,18190.215
8580.645,-15323.894999999999,28372.41,18284.76,37485.405,17277.3,31148.235,18196.605
8585.055,-15312.15,28401.164999999997,18337.41,37482.57,17228.43,31145.129999999997,18215.01
8602.92,-15279.615,28419.66,18321.93,37311.21,17156.88,31151.969999999998,18229.635
8566.65,-15310.8,28381.41,18263.565,37397.115,17190.45,31144.32,18220.5
8555.31,-15327.945,28371.555,18278.55,37550.52,17263.845,31130.28,18200.52
8615.295,-15284.789999999999,28386.855,18263.43,37456.74,17252.73,31114.53,18224.235
8650.529999999999,-15251.625,28402.559999999998,18252.045,37303.244999999995,17139.735,31106.699999999997,18246.375
8590.32,-15319.484999999999,28351.844999999998,18201.285,37295.189999999995,17047.98,31132.71,18238.364999999998
8566.425,-15334.335,28386.765,18321.885,37626.795,17322.12,31131.495,18198.765
8587.44,-15324.66,28389.285,18309.645,37573.335,17297.325,31131.135,18218.204999999998
8608.32,-15299.055,28390.68,18272.43,37502.82,17245.89,31116.735,18227.61
8631.27,-15286.455,28398.914999999997,18264.96,37469.115,17229.42,31097.699999999997,18247.005
8641.98,-15296.355,28373.895,18207.809999999998,37353.915,17165.88,31092.84,18260.954999999998
8631.045,-15299.505,28359.135,18172.89,37357.92,17153.91,31101.03,18242.325
8595.09,-15314.76,28366.649999999998,18244.395,37468.215,17236.17,31101.93,18211.77
8596.755,-15298.064999999999,28405.53,18281.835,37274.58,17217.945,31099.545,18219.51
8547.3,-15295.724999999999,28411.695,18258.344999999998,37217.385,17152.02,31087.754999999997,18219.825
8470.98,-15336.675,28364.399999999998,18227.745,37584.72,17255.97,31072.454999999998,18185.85
8525.654999999999,-15323.4,28370.385,18233.01,37557.045,17235.27,31094.28,18202.14
8562.735,-15280.515,28401.704999999998,18224.82,37483.11,17252.73,31105.035,18203.895
8582.76,-15271.335,28411.785,18228.149999999998,37517.354999999996,17252.46,31100.309999999998,18217.44
8552.16,-15332.265,28375.695,18201.735,37486.08,17224.785,31093.695,18243.27
8570.925,-15333.705,28388.969999999998,18214.92,37481.58,17228.655,31075.065,18240.885
8660.835,-15243.84,28449.405,18255.329999999998,37478.61,17231.535,31062.555,18237.285
8695.845,-15244.199999999999,28390.995,18154.8,37284.21,17164.62,31081.949999999997,18261.855
8736.975,-15236.73,28380.059999999998,18135.36,37112.895,17144.595,31076.324999999997,18284.13
8688.51,-15275.43,28407.96,18204.524999999998,37348.92,17114.579999999998,31069.26,18252.945
8630.279999999999,-15343.47,28347.704999999998,18145.98,37524.645,17197.559999999998,31077.719999999998,18238.23
8605.305,-15365.88,28341.765,18177.03,37543.229999999996,17262.945,31065.75,18222.03
8672.4,-15324.029999999999,28325.204999999998,18120.059999999998,37236.825,17071.47,31053.914999999997,18288.54
8658.99,-15253.154999999999,28386.18,18134.91,37168.515,17016.255,31059.405,18284.805
8601.975,-15233.939999999999,28436.579999999998,18180.719999999998,37346.939999999995,17246.16,31079.699999999997,18239.445
8564.535,-15309.81,28385.145,18172.035,37570.185,17251.47,31080.735,18206.145
8592.75,-15287.67,28404.0,18190.53,37617.21,17238.555,31075.515,18216.585
8627.76,-15270.57,28408.23,18163.17,37506.915,17218.26,31071.51,18238.41
8621.775,-15309.404999999999,28392.21,18150.344999999998,37497.96,17215.155,31069.844999999998,18242.73
8627.49,-15309.18,28397.024999999998,18155.16,37457.82,17232.704999999998,31057.335,18248.085
8608.41,-15306.255,28404.945,18174.42,37343.88,17276.309999999998,31051.35,18218.61
8618.22,-15301.215,28357.875,18088.245,37301.805,17066.61,31051.079999999998,18253.305
8615.654999999999,-15272.865,28351.89,18093.015,37539.314999999995,17171.954999999998,31062.824999999997,18249.93
8647.695,-15241.68,28384.649999999998,18146.16,37534.95,17254.845,31063.995,18238.364999999998
8649.18,-15251.22,28409.94,18170.325,37531.935,17260.155,31048.11,18246.645
8636.76,-15243.66,28420.469999999998,18143.82,37461.645,17183.835,31052.114999999998,18247.905
8633.88,-15227.505,28436.579999999998,18153.855,37382.534999999996,17157.285,31049.28,18249.434999999998
8636.535,-15247.529999999999,28416.825,18115.92,37291.409999999996,17160.39,31057.515,18256.23
8655.525,-15242.355,28414.17,18059.985,37292.76,17172.63,31036.86,18263.295
8663.58,-15245.01,28418.489999999998,18114.795,37450.35,17233.695,31017.195,18255.42
8677.305,-15248.295,28380.87,18046.575,37317.645,17163.315,31030.02,18265.184999999998
8670.33,-15224.265,28413.989999999998,18066.465,37396.034999999996,17118.54,31032.945,18263.52
8680.59,-15223.41,28433.835,18123.795,37541.07,17164.53,31019.94,18249.48
8658.945,-15303.15,28363.725,18056.925,37442.564999999995,17167.5,30998.385,18265.14
8630.595,-15278.13,28407.105,18099.899999999998,37492.38,17246.97,31006.485,18262.62
8631.99,-15214.455,28471.094999999998,18162.855,37553.895,17348.175,31023.945,18250.605
8633.97,-15242.805,28422.09,18092.969999999998,37387.71,17203.815,31038.434999999998,18272.295
8619.48,-15265.305,28407.105,18071.28,37283.31,17119.26,31038.885,18264.42
8636.76,-15256.215,28368.225,18005.985,37372.095,17139.149999999998,31023.899999999998,18252.809999999998
8689.949999999999,-15190.199999999999,28444.545,18099.63,37289.52,17162.684999999998,31016.52,18262.89
