ch_0,ch_1,ch_2,ch_3,ch_4,ch_5,ch_6,ch_7
-16460.19,-37689.03,1049.175,-2692.845,-2018.0249999999999,-32790.869999999995,-4544.099999999999,7525.71
-16477.92,-37740.42,1015.4699999999999,-2741.355,-2092.9049999999997,-32865.165,-4586.355,7527.96
-16517.835,-37811.97,974.88,-2751.5699999999997,-2108.0699999999997,-32867.145,-4592.97,7509.96
-16525.26,-37825.335,969.8399999999999,-2704.68,-2043.0,-32785.65,-4582.215,7501.86
-16470.54,-37771.515,961.3349999999999,-2697.525,-2029.86,-32768.19,-4583.205,7531.335
-16425.315,-37673.955,984.285,-2710.845,-2064.645,-32809.68,-4588.155,7554.285
-16436.16,-37638.63,1019.2049999999999,-2705.67,-2072.835,-32820.615,-4571.1449999999995,7557.21
-16462.079999999998,-37660.095,1015.0649999999999,-2689.6949999999997,-2038.905,-32776.47,-4556.565,7553.88
-16469.145,-37707.299999999996,989.37,-2704.005,-2045.34,-32769.135,-4553.775,7564.545
-16489.575,-37727.549999999996,984.645,-2721.42,-2077.6949999999997,-32802.39,-4573.62,7558.0199999999995
-16492.995,-37701.945,984.51,-2736.99,-2102.1749999999997,-32832.0,-4594.545,7552.665
-16506.765,-37710.0,965.385,-2730.15,-2071.035,-32791.86,-4605.929999999999,7540.245
-16505.954999999998,-37719.09,958.275,-2716.56,-2046.645,-32759.28,-4605.3,7544.025
-16482.51,-37644.93,988.56,-2722.725,-2072.52,-32795.235,-4605.48,7559.46
-16510.59,-37649.295,992.745,-2734.83,-2103.075,-32835.645,-4597.965,7558.155
-16540.695,-37672.38,982.305,-2750.67,-2130.0299999999997,-32863.545,-4590.764999999999,7553.16
-16533.0,-37684.935,995.31,-2714.265,-2077.83,-32801.895,-4590.945,7552.9349999999995
-16478.055,-37696.005,958.41,-2711.79,-2060.145,-32785.2,-4607.595,7586.73
-16393.14,-37561.68,995.535,-2713.3199999999997,-2085.75,-32824.44,-4601.655,7633.9349999999995
-16351.109999999999,-37463.625,1037.385,-2701.035,-2086.1549999999997,-32838.705,-4596.705,7657.065
-16367.715,-37451.205,1036.8899999999999,-2698.65,-2075.94,-32830.335,-4601.79,7648.335
-16394.355,-37443.195,1045.71,-2694.915,-2064.645,-32818.229999999996,-4610.429999999999,7634.16
-16437.105,-37477.799999999996,1019.88,-2722.8599999999997,-2090.7,-32844.825,-4604.67,7620.075
-16495.695,-37521.674999999996,994.23,-2735.64,-2089.5299999999997,-32833.395,-4583.474999999999,7598.07
-16540.29,-37541.79,998.415,-2728.17,-2081.7,-32822.19,-4586.535,7583.264999999999
-16562.565,-37572.975,1037.0249999999999,-2679.12,-2034.7649999999999,-32779.845,-4609.575,7582.41
-16615.845,-37747.17,939.555,-2726.2799999999997,-2063.52,-32796.9,-4633.605,7561.485
-16642.395,-37765.799999999996,895.9499999999999,-2756.79,-2089.755,-32810.94,-4634.775,7537.86
-16579.17,-37553.22,969.2099999999999,-2707.875,-2052.585,-32780.34,-4634.55,7557.75
-16475.85,-37424.744999999995,1006.0649999999999,-2698.605,-2066.535,-32804.01,-4639.005,7615.9349999999995
-16426.305,-37447.155,1002.3299999999999,-2705.85,-2096.775,-32842.26,-4639.95,7649.955
-16360.605,-37317.869999999995,1062.18,-2655.855,-2070.18,-32825.295,-4624.695,7689.554999999999
-16379.414999999999,-37280.744999999995,1078.56,-2663.865,-2080.215,-32833.395,-4632.4349999999995,7689.014999999999
-16459.965,-37472.265,990.63,-2678.805,-2056.6349999999998,-32794.02,-4638.15,7656.974999999999
-16508.16,-37539.494999999995,916.4699999999999,-2725.02,-2082.285,-32805.045,-4627.44,7635.195
-16493.13,-37432.08,940.3199999999999,-2756.025,-2131.29,-32850.99,-4623.03,7642.17
-16517.52,-37444.14,933.2099999999999,-2748.42,-2127.24,-32845.229999999996,-4618.755,7640.82
-16511.805,-37415.835,984.78,-2674.7999999999997,-2053.5299999999997,-32778.63,-4619.025,7645.905
-16484.579999999998,-37403.909999999996,985.41,-2647.17,-2026.53,-32760.27,-4627.17,7663.139999999999
-16481.88,-37271.744999999995,1029.06,-2676.1949999999997,-2088.72,-32825.924999999996,-4637.79,7666.469999999999
-16515.585,-37281.6,1030.0049999999999,-2683.395,-2095.1549999999997,-32824.08,-4635.54,7653.69
-16520.085,-37347.165,1033.695,-2632.5899999999997,-2041.74,-32774.895,-4657.86,7644.509999999999
-16479.36,-37346.85,978.8399999999999,-2667.735,-2070.9,-32800.32,-4667.355,7668.8099999999995
-16383.015,-37172.924999999996,1009.98,-2694.24,-2106.4049999999997,-32832.585,-4656.195,7718.849999999999
-16402.5,-37193.354999999996,1020.06,-2666.295,-2072.7,-32806.44,-4663.98,7709.67
-16381.484999999999,-37103.49,1056.825,-2643.435,-2066.31,-32813.82,-4661.865,7722.495
-16406.82,-37074.915,1068.795,-2667.645,-2102.715,-32850.405,-4666.59,7721.46
-16506.27,-37216.619999999995,1008.81,-2697.795,-2113.1549999999997,-32847.795,-4674.599999999999,7678.215
-16557.975,-37302.165,957.105,-2703.69,-2096.775,-32826.555,-4686.66,7652.835
-16542.63,-37328.04,928.935,-2684.79,-2062.215,-32791.994999999995,-4694.67,7656.795
-16456.995,-37216.845,961.92,-2652.12,-2037.06,-32779.485,-4682.25,7705.485
-16385.399999999998,-37046.564999999995,1029.105,-2620.17,-2033.5049999999999,-32793.615,-4676.67,7737.525
-16384.14,-36970.875,1060.83,-2621.88,-2044.4399999999998,-32806.845,-4663.17,7741.259999999999
-16451.28,-37054.71,1008.5849999999999,-2662.38,-2074.095,-32834.43,-4683.33,7710.075
-16472.295,-37007.64,1047.42,-2632.14,-2044.08,-32807.655,-4683.6449999999995,7698.735
-16511.67,-37068.659999999996,1021.635,-2626.74,-2034.54,-32805.54,-4684.545,7687.304999999999
-16550.954999999998,-37195.064999999995,951.9749999999999,-2642.04,-2052.27,-32836.68,-4685.94,7676.6849999999995
-16515.945,-37098.405,961.785,-2633.355,-2048.895,-32843.159999999996,-4695.255,7686.945
-16442.145,-36899.46,1031.94,-2600.91,-2032.11,-32848.875,-4699.9349999999995,7721.865
-16418.565,-36858.195,1060.245,-2616.93,-2064.375,-32893.38,-4696.514999999999,7753.41
-16506.09,-37031.445,1007.5949999999999,-2651.04,-2093.625,-32922.135,-4723.605,7729.335
-16585.785,-37175.22,963.0,-2635.065,-2062.395,-32887.89,-4724.099999999999,7694.009999999999
-16558.649999999998,-37102.5,973.5749999999999,-2611.395,-2025.27,-32839.965,-4717.17,7696.71
-16435.71,-36855.63,1062.27,-2573.37,-2000.6999999999998,-32819.715,-4728.78,7744.32
-16355.25,-36754.29,1053.315,-2588.085,-2020.5449999999998,-32844.51,-4729.41,7786.9349999999995
-16348.994999999999,-36753.75,1036.935,-2599.875,-2031.21,-32853.195,-4722.03,7800.21
-16380.539999999999,-36763.875,1034.685,-2609.1,-2048.49,-32871.915,-4728.195,7789.23
-16406.954999999998,-36741.33,1072.17,-2582.415,-2035.485,-32868.405,-4734.495,7779.509999999999
-16439.175,-36723.195,1102.095,-2556.765,-2008.4399999999998,-32847.705,-4738.095,7764.344999999999
-16461.405,-36749.43,1078.875,-2564.685,-2001.465,-32833.71,-4741.965,7755.705
-16461.36,-36784.034999999996,1033.92,-2590.83,-2017.62,-32841.99,-4741.11,7760.655
-16448.579999999998,-36756.405,1023.615,-2606.985,-2036.4299999999998,-32862.015,-4744.3949999999995,7769.115
-16506.045,-36772.875,1061.01,-2578.68,-2022.75,-32850.63,-4754.07,7753.005
-16620.614999999998,-36810.945,1088.325,-2581.6949999999997,-2033.595,-32854.59,-4775.355,7712.865
-16644.239999999998,-36918.945,1066.185,-2581.605,-2014.335,-32819.085,-4768.245,7704.134999999999
-16582.32,-37010.564999999995,979.8299999999999,-2593.125,-1993.725,-32780.744999999995,-4751.91,7733.565
-16440.57,-36746.82,979.4699999999999,-2616.165,-2037.915,-32828.265,-4760.595,7789.049999999999
-16405.11,-36477.765,1100.0249999999999,-2603.3849999999998,-2064.06,-32860.395,-4774.095,7799.3099999999995
-16518.015,-36625.95,1083.1499999999999,-2616.345,-2070.18,-32852.744999999995,-4767.885,7763.759999999999
-16579.215,-36739.08,1069.875,-2574.9,-2008.71,-32786.82,-4780.08,7737.884999999999
-16511.265,-36723.375,1082.0249999999999,-2545.92,-1984.32,-32769.54,-4771.71,7781.085
-16447.545,-36540.72,1137.33,-2535.39,-1999.395,-32796.405,-4761.224999999999,7812.764999999999
-16520.805,-36441.72,1168.02,-2573.1,-2043.3149999999998,-32828.805,-4761.9,7785.99
-16703.1,-36737.145,1081.215,-2616.165,-2072.52,-32841.09,-4795.5599999999995,7716.96
-16770.375,-37035.225,995.895,-2599.83,-2027.745,-32782.905,-4821.03,7688.115
-16665.48,-36917.1,1032.2549999999999,-2530.755,-1959.48,-32730.93,-4849.47,7720.514999999999
-16425.0,-36520.515,1159.3799999999999,-2503.08,-1995.435,-32790.825,-4799.745,7823.025
-16297.154999999999,-36247.77,1253.07,-2496.015,-2006.28,-32787.045,-4732.514999999999,7882.424999999999
-16313.13,-36198.36,1261.305,-2491.605,-1987.245,-32756.355,-4715.505,7880.849999999999
-16391.7,-36271.08,1244.52,-2495.43,-1989.7649999999999,-32762.52,-4730.22,7859.969999999999
-16478.64,-36389.25,1213.6499999999999,-2511.9449999999997,-1996.11,-32751.899999999998,-4758.885,7828.0199999999995
-16512.75,-36527.085,1103.355,-2547.585,-2000.97,-32737.635,-4782.78,7810.695
-16418.43,-36387.314999999995,1136.1599999999999,-2478.015,-1940.715,-32691.375,-4766.264999999999,7845.929999999999
-16376.039999999999,-36244.755,1200.2849999999999,-2487.15,-1992.8249999999998,-32760.585,-4777.065,7871.445
-16416.945,-36256.59,1208.1599999999999,-2531.79,-2034.99,-32785.695,-4798.3949999999995,7854.48
-16521.345,-36346.994999999995,1208.43,-2525.895,-2019.915,-32752.125,-4817.115,7799.58
-16612.785,-36359.955,1203.75,-2510.73,-1999.395,-32729.805,-4822.514999999999,7762.724999999999
-16711.47,-36506.88,1145.43,-2504.7,-1964.385,-32683.454999999998,-4826.474999999999,7727.715
-16720.965,-36713.43,1041.57,-2525.85,-1955.5649999999998,-32649.164999999997,-4773.87,7721.955
-16566.165,-36412.875,1204.29,-2406.33,-1871.28,-32589.629999999997,-4731.66,7770.69
-16388.37,-36059.76,1393.02,-2299.185,-1818.54,-32566.59,-4713.525,7840.62
-16315.875,-35979.795,1405.53,-2302.515,-1843.02,-32598.18,-4714.47,7884.63
-16294.365,-35906.76,1388.205,-2313.99,-1848.24,-32592.059999999998,-4729.365,7913.61
-16385.355,-35957.79,1389.96,-2309.4449999999997,-1833.12,-32560.199999999997,-4719.195,7868.79
-16535.7,-36110.43,1395.225,-2273.895,-1784.61,-32498.055,-4621.005,7779.33
-16522.245,-36049.95,1516.365,-2125.395,-1634.49,-32353.155,-4566.465,7780.59
-16476.12,-35940.104999999996,1540.0349999999999,-2101.77,-1600.965,-32319.225,-4568.804999999999,7823.745
-16487.73,-35960.4,1506.24,-2174.085,-1658.0249999999999,-32350.364999999998,-4580.91,7837.2
-16448.715,-36041.445,1463.985,-2203.515,-1685.97,-32381.28,-4626.585,7851.6449999999995
-16414.739999999998,-35909.729999999996,1616.22,-2048.13,-1578.78,-32321.114999999998,-4638.15,7848.36
-16439.67,-35732.88,1704.5549999999998,-2069.865,-1629.45,-32372.01,-4628.385,7839.54
-16430.85,-35772.119999999995,1698.165,-2073.105,-1628.1899999999998,-32352.12,-4673.88,7860.195
-16392.96,-35996.76,1549.935,-2101.9049999999997,-1666.1699999999998,-32400.449999999997,-4792.32,7900.11
-16551.63,-36117.99,1347.12,-2274.435,-1850.31,-32588.01,-4962.51,7806.105
-16741.125,-36123.345,1299.825,-2385.765,-1934.01,-32630.309999999998,-4954.005,7711.335
-16770.87,-36072.314999999995,1377.135,-2284.29,-1816.9199999999998,-32515.245,-4910.49,7680.465
-16683.795,-35985.24,1389.4199999999998,-2230.2,-1808.1899999999998,-32545.44,-4877.82,7711.335
-16414.695,-35724.78,1483.02,-2290.995,-1944.8999999999999,-32696.82,-4877.82,7837.38
-16335.765,-35776.89,1354.095,-2452.455,-2087.505,-32800.95,-4920.75,7882.92
-16400.925,-36047.97,1191.375,-2495.745,-2095.965,-32771.924999999996,-4935.33,7864.65
-16473.96,-35966.475,1222.7849999999999,-2431.665,-2024.955,-32686.515,-4873.995,7817.445
-16682.895,-35813.564999999995,1415.4299999999998,-2225.97,-1789.29,-32437.844999999998,-4691.835,7696.98
-16857.135,-35777.115,1719.135,-1849.32,-1381.32,-32020.469999999998,-4468.905,7578.945
-16906.274999999998,-35742.869999999995,1868.76,-1711.08,-1232.5049999999999,-31860.855,-4419.18,7509.465
-16563.645,-35451.18,1970.46,-1695.1499999999999,-1237.0049999999999,-31871.789999999997,-4475.88,7632.585
-16206.57,-35209.125,1987.605,-1731.78,-1319.175,-31998.059999999998,-4764.375,7778.88
-16017.615,-35150.445,1681.02,-2075.94,-1703.115,-32426.28,-5088.6449999999995,7887.465
-15963.57,-35204.085,1387.935,-2458.2149999999997,-2120.7599999999998,-32865.345,-5212.9349999999995,7970.985
-15978.015,-35338.229999999996,1175.445,-2733.795,-2417.49,-33161.895,-5163.255,8034.66
-16019.91,-35393.76,1140.12,-2783.3399999999997,-2475.9449999999997,-33237.854999999996,-5071.815,8059.32
-16134.3,-35454.284999999996,1187.955,-2717.595,-2373.435,-33125.22,-5001.48,7991.594999999999
-16196.67,-35418.689999999995,1253.745,-2605.995,-2223.315,-32958.72,-4981.095,7916.085
-16224.57,-35344.125,1296.405,-2544.615,-2172.915,-32901.345,-4974.4349999999995,7878.6449999999995
-16276.814999999999,-35329.005,1371.06,-2478.5099999999998,-2133.495,-32852.475,-4961.565,7838.19
-16286.984999999999,-35226.765,1483.02,-2390.67,-2064.555,-32772.06,-4952.16,7804.17
-16240.769999999999,-35162.145,1543.6799999999998,-2330.73,-1994.58,-32682.645,-4921.605,7817.085
-16223.13,-35066.205,1522.575,-2361.735,-2006.5049999999999,-32677.515,-4896.855,7821.134999999999
-16264.17,-35030.475,1538.955,-2348.19,-1983.0149999999999,-32643.765,-4875.03,7792.065
-16362.314999999999,-35201.475,1473.48,-2363.355,-1979.415,-32625.585,-4876.92,7763.445
-16427.7,-35390.564999999995,1412.19,-2356.605,-1959.9299999999998,-32590.395,-4861.71,7736.04
-16338.465,-35281.26,1486.395,-2254.185,-1856.655,-32482.079999999998,-4797.315,7762.86
-16209.945,-34927.83,1602.36,-2213.37,-1853.73,-32496.03,-4803.615,7791.21
-16149.914999999999,-34672.994999999995,1723.095,-2156.355,-1827.72,-32491.844999999998,-4851.63,7795.304999999999
-16134.029999999999,-34616.159999999996,1788.705,-2087.055,-1794.6899999999998,-32465.34,-4864.724999999999,7814.384999999999
-16169.175,-34725.284999999996,1769.715,-2103.12,-1831.2749999999999,-32503.184999999998,-4883.49,7803.9
-16256.474999999999,-34770.915,1787.445,-2086.2,-1811.0249999999999,-32478.704999999998,-4880.655,7758.495
-16342.064999999999,-34777.53,1850.175,-2007.0449999999998,-1712.0249999999999,-32372.73,-4834.17,7721.054999999999
-16362.945,-34891.965,1821.375,-1977.435,-1656.135,-32305.364999999998,-4786.785,7711.155
-16329.24,-34759.485,1851.9299999999998,-1984.905,-1682.28,-32339.43,-4791.87,7720.424999999999
-16347.779999999999,-34646.4,1877.58,-2024.5049999999999,-1741.995,-32401.035,-4801.005,7713.855
