ch_0,ch_1,ch_2,ch_3,ch_4,ch_5,ch_6,ch_7
7898.58,-8839.08,-8693.235,-28479.555,-44587.17,-23643.27,-24735.645,14002.695
7919.054999999999,-8938.619999999999,-8727.119999999999,-28551.149999999998,-44718.93,-23816.204999999998,-24807.645,14083.65
7941.195,-9091.71,-8797.365,-28575.18,-44672.354999999996,-23772.96,-24940.844999999998,14079.689999999999
7828.11,-9205.695,-8918.279999999999,-28507.545,-44601.93,-23702.895,-25080.524999999998,13989.6
7506.36,-9180.18,-8753.895,-28531.305,-44670.33,-23753.114999999998,-25147.754999999997,13910.445
7405.65,-9217.89,-8806.994999999999,-28690.469999999998,-44751.104999999996,-23752.35,-25167.69,13917.734999999999
7389.764999999999,-9311.22,-8932.815,-28755.09,-44773.29,-23707.62,-25228.305,13868.234999999999
7505.505,-9204.255,-8764.74,-28802.295,-44817.975,-23679.18,-25284.51,13810.68
7514.19,-9140.535,-8415.27,-28677.825,-44715.645,-23531.219999999998,-25322.985,13788.765
7465.23,-9337.14,-8376.39,-28457.73,-44538.84,-23413.454999999998,-25391.114999999998,13921.154999999999
7873.0199999999995,-9113.085,-8352.135,-28277.325,-44487.765,-23483.79,-25488.585,14206.904999999999
8344.8,-8455.77,-7920.855,-28337.129999999997,-44666.055,-23722.695,-25596.809999999998,14428.035
8402.58,-8200.305,-7888.41,-28578.645,-44705.43,-23728.274999999998,-25659.045,14469.57
8077.1849999999995,-8507.654999999999,-8425.26,-28617.344999999998,-44544.689999999995,-23565.555,-25667.28,14338.98
7877.565,-8948.97,-8930.475,-28376.414999999997,-44409.915,-23500.575,-25614.855,14320.574999999999
7683.48,-9124.335,-8543.52,-28275.704999999998,-44469.99,-23564.79,-25681.995,14271.975
7352.1449999999995,-9293.13,-8448.705,-28320.164999999997,-44502.39,-23573.34,-25745.129999999997,14167.08
7135.605,-9476.234999999999,-8475.119999999999,-28299.69,-44469.765,-23540.76,-25751.475,14055.255
7127.6849999999995,-9409.635,-8433.0,-28333.035,-44435.97,-23456.16,-25725.42,13989.06
7160.804999999999,-9265.14,-8465.67,-28399.68,-44448.659999999996,-23430.015,-25695.045,13971.96
7223.445,-9218.295,-8485.965,-28363.905,-44432.145,-23401.98,-25706.07,13955.31
7397.955,-9246.105,-8560.395,-28360.62,-44435.88,-23383.89,-25693.92,14060.88
7360.155,-9246.734999999999,-8539.83,-28271.565,-44374.905,-23265.405,-25648.649999999998,14012.505
7535.07,-9151.695,-8319.06,-28154.295,-44363.205,-23290.605,-25599.015,14112.225
7753.679999999999,-9078.84,-8380.664999999999,-28129.05,-44337.915,-23330.7,-25507.754999999997,14291.82
7780.23,-8916.345,-8452.935,-28139.895,-44269.335,-23271.57,-25441.92,14322.33
7727.67,-8864.82,-8533.08,-28195.469999999998,-44200.979999999996,-23276.114999999998,-25391.07,14303.699999999999
7739.235,-8928.315,-8516.925,-28152.27,-44181.0,-23319.809999999998,-25390.17,14343.75
7896.915,-9026.414999999999,-8445.824999999999,-28177.829999999998,-44316.674999999996,-23400.225,-25454.34,14428.529999999999
7974.945,-8909.64,-8343.765,-28301.309999999998,-44482.14,-23511.465,-25641.539999999997,14359.365
7929.719999999999,-8754.39,-8374.185,-28352.07,-44380.755,-23486.399999999998,-25836.93,14252.13
7505.28,-8951.355,-8564.58,-28359.045,-44198.82,-23414.895,-25859.565,14165.369999999999
7337.115,-9122.625,-8812.935,-28369.079999999998,-44116.56,-23482.62,-25779.87,14102.82
7443.045,-9125.19,-8882.055,-28297.17,-43912.665,-23392.35,-25685.235,14078.34
7561.3949999999995,-8910.99,-9019.755,-28204.379999999997,-43764.39,-23255.415,-25505.774999999998,13972.904999999999
7561.3949999999995,-8803.845,-8886.015,-28147.32,-43719.705,-23202.629999999997,-25305.57,13962.96
7542.674999999999,-9130.59,-8842.77,-28089.585,-43641.09,-23073.93,-25162.695,14095.98
7703.594999999999,-9176.895,-8750.835,-28005.48,-43575.795,-22975.245,-25157.565,14259.96
7851.509999999999,-9040.77,-8697.42,-27914.94,-43535.97,-22988.79,-25131.645,14431.68
7920.945,-8938.619999999999,-8734.815,-27916.695,-43554.465,-23087.25,-25034.355,14482.529999999999
7884.045,-8892.855,-8765.64,-27923.76,-43550.415,-23174.415,-24907.815,14454.0
7905.96,-8901.63,-8745.435,-27976.995,-43575.705,-23281.155,-24849.629999999997,14406.66
7884.585,-8913.645,-8698.32,-28029.195,-43565.58,-23234.445,-24907.094999999998,14125.095
7771.005,-8970.21,-8675.685,-27907.785,-43423.56,-23063.67,-24883.739999999998,14014.439999999999
7754.759999999999,-8986.904999999999,-8707.455,-27748.664999999997,-43363.08,-23056.605,-24776.415,14214.51
7934.535,-8568.27,-8454.69,-27767.34,-43434.36,-23042.969999999998,-24668.19,14399.595
7840.08,-8237.654999999999,-8168.8949999999995,-27755.01,-43420.994999999995,-22942.62,-24746.265,14285.97
7540.335,-8694.135,-8346.015,-27682.92,-43201.755,-22744.17,-24945.704999999998,13968.63
7489.035,-8851.05,-8416.574999999999,-27588.87,-43111.305,-22747.23,-25102.035,13893.795
7957.799999999999,-8550.449999999999,-8497.44,-27714.914999999997,-43180.74,-22902.12,-25047.629999999997,14224.635
8527.68,-8705.43,-8993.43,-27815.985,-43263.63,-23050.53,-24868.215,14513.13
8791.92,-8747.865,-8957.07,-27765.315,-43238.88,-22935.78,-24764.04,14488.74
8648.82,-8708.67,-8943.93,-27813.015,-43192.17,-22778.64,-24645.555,14578.875
8510.13,-8720.324999999999,-9047.925,-27935.82,-43293.96,-22822.379999999997,-24561.495,14669.369999999999
8549.685,-8512.83,-8939.295,-27815.895,-43271.415,-22842.629999999997,-24610.004999999997,14602.635
8391.96,-8451.404999999999,-8783.279999999999,-27682.695,-43138.979999999996,-22736.34,-24600.465,14455.98
8312.4,-8728.605,-8803.215,-27564.614999999998,-42995.205,-22582.754999999997,-24486.614999999998,14454.225
8676.765,-9023.94,-8879.805,-27506.789999999997,-42999.84,-22581.54,-24312.195,14762.789999999999
9127.755,-8499.645,-8709.164999999999,-27369.09,-42906.375,-22458.059999999998,-24147.629999999997,14939.595
9443.654999999999,-8013.42,-8438.94,-27339.795,-42898.77,-22391.954999999998,-24071.265,14970.285
9404.82,-7845.299999999999,-8278.38,-27363.96,-42975.674999999996,-22436.28,-24007.77,15011.685
9263.43,-7735.005,-8161.29,-27459.0,-43038.54,-22415.579999999998,-24100.2,14943.42
8920.26,-7884.719999999999,-7969.86,-27364.23,-42831.585,-22119.704999999998,-24254.37,14548.904999999999
8635.23,-8233.965,-7986.24,-27218.565,-42581.07,-21925.215,-24172.785,14337.99
8852.805,-8307.27,-8260.38,-27119.925,-42515.369999999995,-22031.28,-23947.469999999998,14568.345
9776.97,-7822.575,-8198.145,-26873.954999999998,-42451.47,-22065.75,-23746.14,14841.855
10180.845,-7437.87,-8233.335,-27096.254999999997,-42656.085,-22201.2,-23671.26,14972.894999999999
9729.27,-7505.775,-8207.955,-27301.68,-42774.119999999995,-22223.52,-23741.055,14919.795
9389.295,-7922.969999999999,-8271.855,-27587.475,-43055.01,-22360.725,-23757.885,14904.585
9414.135,-8102.115,-8362.664999999999,-27742.05,-43236.314999999995,-22490.594999999998,-23702.715,15002.414999999999
9443.699999999999,-8355.779999999999,-8787.69,-27692.145,-43138.395,-22414.815,-23463.135,15039.494999999999
9592.695,-8259.75,-8745.795,-27421.695,-43049.25,-22407.03,-23325.795,15006.105
9541.619999999999,-7956.495,-8500.77,-27174.015,-42857.505,-22252.004999999997,-23246.415,14966.144999999999
9533.835,-7843.545,-8508.465,-27185.805,-42693.03,-22034.655,-23131.934999999998,14869.664999999999
9605.744999999999,-7905.78,-8738.64,-27099.27,-42514.56,-21876.344999999998,-23059.62,14741.01
9847.98,-7777.98,-8989.92,-26904.105,-42379.47,-21771.405,-23029.92,14664.24
10188.135,-7594.65,-8981.505,-26838.27,-42455.97,-21835.62,-22888.575,14828.039999999999
10369.035,-7807.995,-9106.74,-27012.735,-42852.825,-22265.325,-22713.795,15034.859999999999
10257.255,-7677.764999999999,-9114.795,-27123.48,-42951.915,-22322.25,-22704.795,14848.47
9831.15,-7471.665,-9132.21,-27126.27,-42756.165,-21977.864999999998,-22696.02,14514.975
9171.045,-7813.889999999999,-9157.904999999999,-26984.295,-42670.845,-21766.77,-22551.795,14278.769999999999
8734.14,-7846.83,-9006.164999999999,-26902.89,-42707.115,-21738.015,-22333.725,14125.545
8876.475,-7758.764999999999,-9020.385,-26785.215,-42462.27,-21560.219999999998,-22095.899999999998,14199.975
9267.93,-7328.655,-9042.57,-26333.19,-41958.405,-21121.92,-21964.725,14030.595
9949.904999999999,-6922.304999999999,-8894.744999999999,-26007.93,-41840.369999999995,-21006.855,-21775.23,14354.685
10202.31,-6838.2,-8583.255,-25662.195,-41854.86,-21070.71,-21651.93,14600.835
10460.88,-6758.55,-8422.74,-25722.855,-42077.835,-21296.204999999998,-21586.995,14831.279999999999
10262.43,-6809.13,-8582.49,-25899.344999999998,-42176.61,-21280.545,-21494.745,14471.82
10090.845,-7117.335,-8454.69,-25553.79,-41862.33,-20850.39,-21389.489999999998,13984.019999999999
10924.965,-7016.849999999999,-8468.73,-25331.265,-41542.56,-20410.785,-21290.175,14159.43
11461.77,-6265.889999999999,-8178.84,-24894.855,-41106.33,-19991.52,-21348.765,14172.57
12009.869999999999,-5701.95,-7774.155,-24631.379999999997,-41029.56,-20026.215,-21171.195,14713.38
11698.92,-5866.92,-8004.6449999999995,-24734.879999999997,-41183.909999999996,-20290.635,-20983.005,15098.31
10444.635,-6494.264999999999,-8379.27,-24781.905,-41244.165,-20372.309999999998,-20891.925,14418.18
10034.91,-6581.565,-8241.795,-24575.265,-41038.244999999995,-20004.165,-20574.765,13992.66
11089.529999999999,-6373.44,-8030.655,-24410.204999999998,-41132.295,-20092.68,-20100.059999999998,14736.105
12859.785,-6148.62,-8450.01,-25051.725,-41853.555,-20916.045,-19916.64,15984.765
13711.545,-6011.1449999999995,-9101.97,-25759.26,-42475.68,-21662.864999999998,-20208.329999999998,16279.605
13094.46,-6689.7,-9977.039999999999,-26479.079999999998,-43016.67,-22326.75,-20608.875,15608.385
11662.605,-7500.0599999999995,-10531.89,-26576.73,-43194.689999999995,-22590.09,-20935.079999999998,14581.394999999999
9948.645,-7755.705,-10416.195,-26346.015,-42973.47,-22260.329999999998,-20937.239999999998,13552.695
9225.27,-7642.889999999999,-10322.73,-25923.015,-42494.265,-21696.704999999998,-20503.755,13311.99
9967.994999999999,-7472.16,-10545.84,-25625.925,-42464.88,-21829.77,-19987.739999999998,13895.279999999999
11421.855,-6853.905,-10542.105,-25404.48,-42569.235,-22018.094999999998,-19775.88,14416.83
12564.359999999999,-6674.804999999999,-10586.565,-25652.565,-42952.14,-22364.01,-19625.94,14990.58
12424.904999999999,-7022.655,-11030.445,-26317.754999999997,-43605.674999999996,-22937.579999999998,-19567.53,14957.91
11051.73,-7538.849999999999,-11365.47,-26559.719999999998,-43826.354999999996,-22901.579999999998,-19436.13,14256.63
10238.31,-8003.07,-11470.635,-26576.325,-43875.36,-22822.469999999998,-19259.774999999998,13701.06
10576.98,-8354.205,-11561.265,-26780.895,-43959.465,-23066.64,-19101.375,13605.39
11203.56,-8077.049999999999,-11567.88,-26596.62,-43607.295,-23011.559999999998,-18959.67,13548.195
11243.43,-7372.755,-11492.505,-26006.355,-42947.1,-22419.945,-18760.454999999998,13359.824999999999
10287.63,-6637.005,-11430.81,-25343.82,-42123.78,-21541.274999999998,-18560.34,12560.31
10006.02,-6107.264999999999,-11361.824999999999,-24304.635,-41190.255,-20660.67,-18153.855,12192.705
11287.664999999999,-6197.219999999999,-11343.285,-24005.204999999998,-41271.21,-20899.17,-17685.045,13387.994999999999
13227.119999999999,-6625.98,-11301.255,-24662.114999999998,-42227.325,-21936.735,-17551.934999999998,14642.324999999999
13758.3,-6131.655,-11172.869999999999,-25233.03,-42901.695,-22505.94,-17708.489999999998,14470.695
12884.175,-6154.469999999999,-11037.465,-25693.469999999998,-43237.71,-22735.035,-17825.13,13824.045
11960.055,-6859.3949999999995,-10948.23,-25623.899999999998,-42912.854999999996,-22396.77,-17772.255,13260.105
11529.225,-7135.605,-10887.21,-25577.28,-42873.57,-22300.515,-17662.995,13245.48
10907.73,-7082.639999999999,-10803.914999999999,-25623.629999999997,-42912.045,-22223.024999999998,-17460.225,13047.795
10466.46,-7384.139999999999,-10699.02,-25619.085,-42850.08,-22218.344999999998,-17288.19,12624.705
10980.359999999999,-7659.9,-10601.82,-25524.225,-42795.765,-22413.96,-17201.79,12784.68
11985.255,-7211.655,-10490.22,-25601.445,-43197.435,-22987.44,-17094.329999999998,13367.609999999999
12469.005,-6957.99,-10356.795,-25869.914999999997,-43637.174999999996,-23435.774999999998,-16973.64,13504.14
12417.66,-6818.804999999999,-10188.315,-25847.145,-43622.505,-23339.43,-16903.26,13083.345
11965.23,-6807.24,-10051.335,-26006.715,-43599.869999999995,-23150.385,-16762.32,12899.699999999999
11199.6,-7060.905,-9923.49,-25699.454999999998,-43122.51,-22693.905,-16575.48,12489.074999999999
11132.595,-7046.775,-9761.49,-25050.87,-42565.229999999996,-22238.64,-16341.75,12300.885
11131.064999999999,-6856.5599999999995,-9613.08,-24810.344999999998,-42397.29,-22115.7,-16029.494999999999,12334.185
11351.07,-6894.495,-9505.8,-25057.26,-42648.165,-22343.445,-15725.609999999999,12816.269999999999
11938.77,-6811.469999999999,-9391.365,-25223.895,-42991.56,-22708.8,-15453.765,13111.83
12018.015,-7106.355,-9290.835,-25276.23,-43241.04,-23086.575,-15259.994999999999,12929.22
12111.435,-7339.95,-9219.33,-25729.785,-43858.17,-23764.454999999998,-15115.814999999999,12973.41
12125.43,-7546.41,-9154.26,-26121.51,-44329.86,-24236.504999999997,-14959.439999999999,12951.539999999999
11729.475,-7565.085,-9081.63,-26243.954999999998,-44262.09,-24141.329999999998,-14763.24,12519.359999999999
11075.76,-7838.82,-9015.84,-26325.225,-44047.89,-23927.535,-14536.664999999999,12174.75
10910.654999999999,-8019.315,-8935.289999999999,-26158.59,-43832.07,-23795.145,-14277.24,12134.835
11502.72,-7769.88,-8824.77,-25758.629999999997,-43718.85,-23781.059999999998,-14032.17,12369.195
12084.119999999999,-7042.59,-8676.225,-25261.245,-43400.384999999995,-23493.42,-13777.515,12116.654999999999
12483.27,-6295.005,-8548.02,-24832.934999999998,-42867.225,-22761.719999999998,-13413.465,12271.005
12494.385,-6210.764999999999,-8468.279999999999,-24779.25,-42871.95,-22663.215,-13056.255,12855.869999999999
12637.08,-6327.945,-8390.07,-25086.465,-43339.634999999995,-23256.09,-12755.25,13299.885
12782.385,-6114.915,-8305.02,-25294.454999999998,-43592.67,-23692.32,-12554.775,13277.835
12703.635,-6692.94,-8272.08,-25693.739999999998,-43951.365,-24151.32,-12363.885,13053.51
11851.965,-7485.66,-8261.64,-25924.995,-44154.854999999996,-24380.64,-12116.654999999999,12597.164999999999
11194.335,-7677.945,-8208.045,-25788.329999999998,-44072.189999999995,-24268.23,-11801.295,12260.475
11096.46,-7743.42,-8126.054999999999,-25595.46,-43860.689999999995,-23995.44,-11400.57,12173.22
11473.92,-7652.429999999999,-8057.205,-25514.55,-43794.585,-23956.605,-10976.895,12280.904999999999
11840.805,-7231.59,-7987.7699999999995,-25518.015,-43898.22,-24079.86,-10655.055,12345.795
11847.24,-6885.54,-7920.855,-25696.44,-44035.29,-24037.379999999997,-10437.525,12258.855
