ch_0,ch_1,ch_2,ch_3,ch_4,ch_5,ch_6,ch_7
-9909.359999999999,-46720.305,-12269.699999999999,-41876.325,-22236.344999999998,-10727.414999999999,-5666.3099999999995,6630.12
-9981.539999999999,-46622.564999999995,-12290.85,-41819.174999999996,-22035.42,-10335.645,-5624.415,6535.3949999999995
-10060.335,-46555.29,-12384.855,-41708.295,-21681.765,-9859.77,-5686.74,6416.099999999999
-10042.289999999999,-46597.005,-12528.18,-41784.57,-21725.28,-9916.92,-5679.945,6404.4
-10042.605,-46836.314999999995,-12541.59,-41772.33,-21778.515,-10005.57,-5663.205,6448.275
-10106.234999999999,-47003.67,-12432.555,-41680.034999999996,-21762.405,-10023.84,-5758.0199999999995,6513.48
-10204.875,-47000.384999999995,-12306.645,-41655.42,-21803.715,-10062.539999999999,-5834.25,6521.8949999999995
-10080.404999999999,-46925.909999999996,-12199.994999999999,-41651.955,-21853.665,-10153.8,-5751.945,6528.735
-10051.289999999999,-46810.665,-12199.005,-41685.93,-21859.245,-10139.22,-5671.844999999999,6460.83
-10023.93,-46735.02,-12189.734999999999,-41664.15,-21767.715,-10005.705,-5744.474999999999,6449.58
-9997.965,-46740.195,-12269.205,-41723.145,-21738.015,-9939.15,-5725.575,6486.884999999999
-10010.295,-46822.409999999996,-12391.515,-41862.689999999995,-21816.989999999998,-9978.164999999999,-5752.26,6493.05
-9963.135,-46762.02,-12346.335,-41939.28,-21971.204999999998,-10137.105,-6049.035,6556.7699999999995
-9931.185,-46609.29,-12233.789999999999,-41903.595,-22101.12,-10393.875,-6110.01,6604.514999999999
-9864.449999999999,-46508.4,-12180.645,-41817.375,-22117.004999999997,-10499.445,-5831.505,6609.599999999999
-10076.175,-46713.104999999996,-12298.005,-41789.205,-22068.989999999998,-10409.984999999999,-5404.86,6450.075
-10217.699999999999,-46904.985,-12299.355,-41605.784999999996,-21788.145,-10121.94,-5381.865,6311.88
-10326.015,-47027.564999999995,-12336.119999999999,-41532.165,-21660.165,-10066.904999999999,-5487.21,6300.585
-10434.69,-47033.549999999996,-12357.81,-41568.885,-21676.5,-10091.295,-5492.025,6339.375
-10383.164999999999,-46977.165,-12347.55,-41603.13,-21719.385,-10122.345,-5514.389999999999,6398.37
-10305.045,-46895.67,-12304.439999999999,-41544.54,-21707.504999999997,-10163.07,-5573.205,6399.764999999999
-10194.795,-46827.765,-12299.715,-41522.715,-21672.495,-10153.17,-5603.04,6424.335
-10103.67,-46791.045,-12393.314999999999,-41580.09,-21686.715,-10138.949999999999,-5621.804999999999,6444.179999999999
-10127.43,-46957.32,-12537.539999999999,-41615.549999999996,-21694.184999999998,-10132.065,-5633.37,6439.679999999999
-10152.225,-46874.295,-12522.51,-41649.479999999996,-21743.864999999998,-10185.795,-5667.705,6421.7699999999995
-10217.205,-46698.39,-12332.52,-41620.365,-21775.68,-10247.265,-5713.695,6376.7699999999995
-10197.945,-46750.59,-12309.615,-41624.82,-21793.59,-10264.185,-5704.65,6397.785
-10067.625,-46688.715,-12400.47,-41671.215,-21796.965,-10198.935,-5694.795,6443.865
-10059.074999999999,-46751.22,-12452.265,-41647.994999999995,-21790.665,-10181.52,-5643.945,6501.285
-10016.46,-46953.09,-12539.564999999999,-41657.67,-21790.62,-10173.645,-5625.0,6539.985
-10002.869999999999,-46979.28,-12486.15,-41655.015,-21773.7,-10143.404999999999,-5690.88,6501.105
-10093.68,-46689.479999999996,-12203.73,-41609.835,-21755.385,-10133.865,-5767.83,6334.11
-10247.22,-46610.009999999995,-12160.395,-41623.02,-21765.51,-10146.645,-5721.615,6271.785
-10378.529999999999,-46811.52,-12325.814999999999,-41700.645,-21798.315,-10143.945,-5663.655,6324.974999999999
-10294.965,-47075.895,-12551.445,-41752.665,-21815.145,-10148.49,-5624.82,6415.38
-10181.654999999999,-47129.49,-12700.845,-41754.24,-21828.015,-10184.49,-5634.405,6482.205
-10067.49,-47045.475,-12625.289999999999,-41698.08,-21821.309999999998,-10217.744999999999,-5664.24,6519.96
-9998.64,-46919.205,-12408.93,-41677.965,-21873.059999999998,-10296.225,-5724.855,6532.965
-9968.22,-46675.305,-12205.215,-41670.99,-21899.655,-10326.96,-5805.764999999999,6560.865
-9980.369999999999,-46546.875,-12287.88,-41704.604999999996,-21896.64,-10289.609999999999,-5825.655,6538.455
-10061.279999999999,-46627.965,-12465.945,-41790.42,-21913.829999999998,-10281.33,-5769.045,6451.785
-10165.77,-46740.15,-12469.68,-41830.515,-21950.055,-10341.225,-5713.92,6383.07
-10249.289999999999,-46969.74,-12324.285,-41740.02,-21802.454999999998,-10119.24,-5679.495,6401.745
-10175.984999999999,-46899.63,-12322.71,-41778.27,-21816.045,-9982.395,-5778.99,6420.554999999999
-10057.365,-46962.134999999995,-12504.645,-41887.665,-21913.379999999997,-9977.895,-5796.585,6490.62
-9984.195,-47102.31,-12769.74,-42084.99,-22105.53,-10148.984999999999,-5677.245,6575.355
-10041.435,-47028.509999999995,-12789.855,-42169.455,-22160.79,-10221.074999999999,-5678.28,6546.105
-9958.904999999999,-46815.345,-12538.439999999999,-41976.135,-21952.89,-10109.385,-5922.135,6519.87
-9960.39,-46737.9,-12324.465,-41736.96,-21738.645,-10016.505,-6150.465,6495.48
-9911.925,-46631.97,-12188.475,-41789.295,-21818.385,-10119.285,-6250.32,6541.92
-9884.88,-46494.585,-12087.135,-41912.369999999995,-22017.915,-10272.24,-6136.74,6571.8
-9970.244999999999,-46547.865,-12200.535,-41995.08,-22200.704999999998,-10532.97,-5811.84,6493.32
-10087.74,-46669.455,-12404.07,-41916.689999999995,-22216.05,-10619.324999999999,-5570.415,6432.705
-10177.785,-46841.85,-12721.994999999999,-41783.85,-22037.625,-10445.265,-5443.65,6404.3099999999995
-10333.125,-47022.75,-12813.57,-41703.435,-21787.739999999998,-10197.539999999999,-5401.8,6337.755
-10475.775,-46993.14,-12524.355,-41634.54,-21634.829999999998,-10122.39,-5412.735,6284.429999999999
-10423.755,-47013.615,-12453.48,-41583.465,-21610.26,-10159.065,-5528.745,6294.51
-10224.72,-47056.275,-12438.494999999999,-41489.955,-21623.579999999998,-10222.47,-5593.59,6342.48
-10097.01,-46993.095,-12411.855,-41486.4,-21686.715,-10309.185,-5626.53,6416.054999999999
-10172.789999999999,-47052.045,-12313.71,-41492.924999999996,-21729.285,-10350.494999999999,-5628.78,6448.005
-10181.699999999999,-46987.244999999995,-12276.945,-41490.45,-21718.079999999998,-10324.08,-5684.804999999999,6436.665
-10176.48,-46968.57,-12353.49,-41539.635,-21766.05,-10360.17,-5715.045,6443.46
-10172.07,-46930.005,-12331.89,-41556.869999999995,-21793.094999999998,-10391.76,-5729.625,6441.165
-10129.32,-46883.564999999995,-12303.045,-41575.365,-21786.614999999998,-10360.17,-5739.929999999999,6442.65
-10179.315,-46826.28,-12370.77,-41604.479999999996,-21702.015,-10192.005,-5761.485,6327.63
-10296.855,-46710.494999999995,-12359.609999999999,-41567.715,-21558.78,-9988.74,-5716.215,6209.19
-10424.16,-46717.604999999996,-12341.205,-41640.93,-21564.18,-9888.255,-5631.03,6232.32
-10477.215,-46978.29,-12514.59,-41714.505,-21587.985,-9904.5,-5576.175,6315.57
-10363.815,-47126.655,-12744.09,-41793.39,-21676.77,-10056.645,-5559.165,6392.16
-10137.869999999999,-47127.915,-13061.609999999999,-41805.09,-21699.719999999998,-10112.85,-5574.78,6499.71
-10014.164999999999,-47174.805,-13195.755,-41755.229999999996,-21720.96,-10180.71,-5623.245,6549.075
-9958.005,-46804.095,-12691.935,-41654.924999999996,-21742.02,-10219.77,-5787.8099999999995,6525.855
-9807.255,-46417.365,-12252.015,-41625.18,-21808.395,-10214.505,-6117.885,6573.87
-9750.645,-46560.6,-12405.105,-41754.375,-21963.825,-10260.09,-6326.639999999999,6616.035
-9856.484999999999,-46949.939999999995,-12649.904999999999,-41894.189999999995,-22052.565,-10306.574999999999,-6121.889999999999,6586.155
-9995.445,-46956.015,-12719.115,-42070.455,-22259.835,-10517.94,-5655.465,6529.41
-10102.77,-47045.295,-12678.119999999999,-41958.09,-22105.53,-10416.779999999999,-5485.815,6472.755
-10272.015,-46925.729999999996,-12486.734999999999,-41530.005,-21631.95,-10206.27,-5600.429999999999,6332.3099999999995
-10344.734999999999,-46900.215,-12486.105,-41413.095,-21510.765,-10141.695,-5716.98,6249.42
-10344.24,-46908.99,-12593.205,-41516.46,-21515.355,-10026.765,-5743.3949999999995,6251.58
-10278.225,-46791.0,-12564.945,-41558.715,-21507.03,-9950.13,-5770.08,6245.28
-10207.89,-46732.229999999996,-12481.02,-41601.869999999995,-21586.815,-9992.115,-5782.905,6310.9349999999995
-10139.805,-46684.665,-12448.35,-41703.21,-21821.85,-10185.885,-5750.1449999999995,6378.4349999999995
-10066.275,-46639.89,-12417.435,-41681.43,-21951.989999999998,-10442.115,-5704.38,6410.429999999999
-10034.82,-46762.515,-12472.02,-41579.145,-21834.629999999997,-10464.164999999999,-5771.79,6463.8
-9970.02,-46726.335,-12515.85,-41548.005,-21710.07,-10291.815,-5916.6449999999995,6543.9
-9986.445,-46803.645,-12485.564999999999,-41691.06,-21787.92,-10206.585,-5992.469999999999,6599.07
-9903.42,-46664.64,-12387.015,-41922.765,-22162.364999999998,-10348.425,-6114.014999999999,6594.75
-9772.065,-46286.64,-12311.324999999999,-42050.07,-22399.2,-10418.49,-6248.07,6537.69
-9840.96,-46176.21,-12280.635,-42026.445,-22432.95,-10558.755,-5987.969999999999,6526.3949999999995
-10176.48,-46474.965,-12467.295,-42048.405,-22393.26,-10660.275,-5416.514999999999,6369.165
-10423.44,-46768.77,-12708.765,-41931.54,-22040.415,-10411.244999999999,-5368.1849999999995,6183.54
-10493.595,-47240.64,-12912.074999999999,-41700.104999999996,-21604.77,-10098.63,-5443.38,6144.525
-10425.914999999999,-47398.77,-12890.025,-41538.015,-21426.12,-10013.175,-5486.67,6225.165
-10358.73,-47352.735,-12726.765,-41428.305,-21441.78,-10048.635,-5544.54,6361.065
-10318.005,-47168.729999999996,-12662.279999999999,-41520.78,-21650.535,-10160.73,-5645.115,6430.365
-10125.27,-46910.52,-12499.605,-41724.0,-21906.765,-10277.279999999999,-5864.715,6504.4349999999995
-10002.375,-46688.4,-12656.654999999999,-41953.365,-22166.28,-10348.92,-5993.91,6532.38
-9980.91,-47088.18,-13006.08,-42120.99,-22354.335,-10443.24,-5884.29,6585.84
-9977.265,-47258.235,-12841.695,-42205.365,-22693.14,-10700.595,-5764.365,6611.535
-10107.359999999999,-47047.814999999995,-12348.99,-41925.195,-22487.535,-10603.935,-5785.469999999999,6454.575
-10173.42,-46921.59,-12210.57,-41640.345,-22113.09,-10494.945,-5737.59,6361.065
-10162.845,-46859.939999999995,-12174.84,-41480.055,-21844.89,-10486.484999999999,-5687.865,6358.32
-10144.215,-46750.905,-12194.369999999999,-41475.15,-21725.594999999998,-10525.545,-5758.875,6348.735
-10107.765,-46702.53,-12323.43,-41445.494999999995,-21574.8,-10486.395,-5865.84,6294.6449999999995
-10155.824999999999,-46687.409999999996,-12354.93,-41347.17,-21435.12,-10295.369999999999,-5930.235,6224.355
-10216.215,-46651.86,-12262.455,-41427.0,-21543.21,-10256.355,-5868.0,6272.01
-10381.68,-46787.625,-12409.92,-41666.22,-21812.219999999998,-10346.715,-5590.8,6373.17
-10431.81,-47098.845,-12445.695,-41626.53,-21728.43,-10191.824999999999,-5549.94,6424.965
-10240.965,-47030.04,-12423.42,-41544.945,-21664.89,-10165.05,-5723.955,6472.53
-10068.164999999999,-47194.38,-12509.1,-41632.695,-21689.415,-10047.15,-5946.165,6507.63
-9869.805,-47069.729999999996,-12298.814999999999,-41739.93,-21774.915,-10068.164999999999,-6198.48,6551.594999999999
-9789.93,-46722.465,-12056.535,-41848.74,-21949.605,-10271.565,-6244.83,6586.83
-9875.16,-46496.88,-12027.645,-41933.564999999995,-22110.12,-10556.955,-5952.33,6548.175
-10077.029999999999,-46494.72,-12072.06,-41861.25,-22187.114999999998,-10853.055,-5607.99,6452.28
-10353.195,-46665.0,-12126.24,-41513.58,-21851.37,-10681.109999999999,-5574.735,6228.36
-10436.895,-46820.07,-12203.865,-41340.825,-21480.57,-10237.365,-5606.91,6175.9349999999995
-10491.615,-47100.104999999996,-12395.43,-41419.665,-21420.989999999998,-10058.085,-5611.7699999999995,6218.73
-10566.945,-47440.755,-12641.67,-41458.409999999996,-21434.445,-10087.065,-5600.205,6244.695
-10502.414999999999,-47574.63,-12565.484999999999,-41446.125,-21505.815,-10203.75,-5627.385,6265.9349999999995
-10320.93,-47327.805,-12230.73,-41446.665,-21588.255,-10272.51,-5725.08,6278.804999999999
-10115.055,-46938.555,-12031.965,-41468.985,-21697.11,-10333.125,-5831.594999999999,6329.205
-10004.265,-46805.445,-11980.17,-41502.33,-21809.16,-10408.095,-5975.054999999999,6475.1849999999995
-9909.27,-46955.52,-12103.515,-41592.284999999996,-21926.204999999998,-10487.385,-6120.945,6599.384999999999
-9812.88,-46923.615,-12128.22,-41845.095,-22300.875,-10742.22,-6120.405,6697.035
-9873.81,-46831.365,-12072.689999999999,-41948.189999999995,-22480.92,-10794.285,-5938.965,6610.59
-10012.32,-46815.21,-12123.855,-41875.695,-22375.665,-10720.305,-5758.245,6473.115
-10128.015,-46805.895,-12152.789999999999,-41770.17,-22178.34,-10617.39,-5696.054999999999,6420.195
-10285.965,-46902.24,-12171.015,-41687.64,-21935.925,-10407.33,-5755.545,6342.885
-10311.93,-47004.435,-12119.355,-41560.064999999995,-21751.739999999998,-10367.775,-5799.51,6316.0199999999995
-10098.18,-46842.345,-12058.965,-41531.715,-21717.315,-10465.965,-5843.16,6321.599999999999
-10039.05,-46668.33,-12014.279999999999,-41505.479999999996,-21674.79,-10433.699999999999,-5854.635,6303.105
-10223.19,-46657.89,-12001.14,-41482.305,-21624.21,-10321.47,-5864.625,6252.48
-10391.355,-46925.505,-12052.35,-41474.295,-21607.469999999998,-10252.215,-5871.375,6288.03
-10262.654999999999,-46913.85,-12059.505,-41508.225,-21661.245,-10252.845,-5961.42,6325.155
-10157.58,-46924.155,-12078.27,-41584.005,-21761.055,-10289.654999999999,-6050.385,6416.775
-10018.305,-47060.865,-12086.189999999999,-41681.88,-21875.895,-10397.744999999999,-6056.415,6500.25
-10026.539999999999,-46978.02,-12099.15,-41761.305,-21915.36,-10396.125,-5996.07,6489.36
-10059.93,-46946.07,-12093.255,-41792.58,-21885.21,-10251.27,-5997.195,6462.045
-10045.26,-46991.07,-12133.71,-41806.755,-22027.995,-10237.5,-6207.12,6484.724999999999
-10029.015,-47088.99,-12114.99,-41836.275,-22110.254999999997,-10343.88,-6237.99,6517.98
-9910.89,-46867.365,-12035.475,-42115.455,-22490.594999999998,-10746.63,-5919.21,6585.3
-10014.119999999999,-46760.22,-12047.49,-42299.729999999996,-22719.239999999998,-11002.095,-5548.995,6525.764999999999
-10328.58,-46797.659999999996,-12076.92,-41967.674999999996,-22187.79,-10671.39,-5639.085,6284.7
-10513.664999999999,-46780.604999999996,-12098.295,-41602.994999999995,-21694.274999999998,-10337.715,-5770.53,6110.91
-10473.615,-46925.1,-12093.615,-41504.715,-21513.645,-10157.31,-5764.094999999999,6154.11
-10330.83,-47094.57,-12105.765,-41421.78,-21473.415,-10145.295,-5797.26,6236.6849999999995
-10288.529999999999,-47168.82,-12169.98,-41316.03,-21430.755,-10193.94,-5836.32,6302.745
-10235.475,-47316.915,-12190.725,-41374.845,-21526.605,-10282.725,-5857.155,6409.71
-10198.935,-47395.305,-12177.314999999999,-41525.189999999995,-21716.594999999998,-10408.455,-5872.1849999999995,6467.445
