ch_0,ch_1,ch_2,ch_3,ch_4,ch_5,ch_6,ch_7
-5432.445,-39019.409999999996,-9527.4,-30214.71,-50855.31,-32807.295,-9487.484999999999,13558.545
-5526.405,-39027.104999999996,-9179.73,-30480.57,-50861.295,-32605.155,-9697.05,13716.404999999999
-5392.3949999999995,-38913.119999999995,-9136.664999999999,-30815.28,-50786.685,-32538.914999999997,-9935.324999999999,13871.88
-5248.215,-38666.07,-9726.66,-31000.68,-50426.909999999996,-32296.454999999998,-10074.555,14060.97
-5550.885,-38501.369999999995,-9298.484999999999,-31156.829999999998,-50088.915,-32021.594999999998,-10303.65,14019.705
-5737.005,-39094.965,-8984.789999999999,-31122.405,-49698.585,-31627.215,-10427.895,14000.58
-5266.665,-39222.405,-9356.13,-31467.824999999997,-49565.34,-31409.1,-10542.69,14288.76
-4672.71,-39136.68,-10072.664999999999,-31652.684999999998,-49453.83,-31256.19,-10682.64,14655.195
-4095.99,-39257.775,-10500.795,-32078.655,-49327.29,-31100.985,-10863.27,14981.355
-4077.0,-39102.075,-10664.73,-32477.309999999998,-49229.909999999996,-31031.1,-11083.005,15099.525
-4275.99,-38946.689999999995,-10229.715,-32697.809999999998,-49409.955,-31175.774999999998,-11327.22,15138.585
-4229.28,-38357.909999999996,-9277.154999999999,-33025.049999999996,-49852.305,-31496.039999999997,-11764.8,15047.91
-4122.72,-37682.595,-8479.305,-33375.195,-50137.965,-31696.515,-12335.039999999999,14722.244999999999
-4079.79,-38099.475,-8550.045,-33284.79,-49802.715,-31430.789999999997,-12676.635,14662.755
-3894.12,-39104.145,-9454.68,-33093.99,-49511.97,-31200.344999999998,-12599.1,15094.529999999999
-3823.1549999999997,-39092.445,-10419.435,-33228.27,-49581.225,-31251.555,-12781.125,15247.305
-3950.685,-38817.765,-10097.865,-33553.755,-49738.77,-31366.89,-13222.394999999999,15006.33
-3899.6099999999997,-39142.53,-10165.68,-33688.26,-49898.115,-31394.475,-13406.49,14843.385
-4073.1299999999997,-38916.585,-9863.595,-34091.595,-50434.11,-31726.079999999998,-13705.064999999999,14882.58
-4143.96,-39744.314999999995,-9989.324999999999,-34300.305,-50668.965,-32002.335,-13850.189999999999,15227.189999999999
-3788.955,-40309.064999999995,-11020.77,-34663.229999999996,-50643.945,-32099.265,-13951.439999999999,15601.455
-3753.3599999999997,-39473.28,-11965.545,-35273.385,-50661.045,-32210.55,-14341.185,15689.835
-4281.389999999999,-39352.77,-11282.76,-35222.58,-50966.64,-32556.105,-14912.279999999999,15473.564999999999
-5012.955,-39862.395,-10158.795,-35179.29,-51207.704999999994,-32785.56,-15229.755,15298.47
-5617.62,-39978.27,-9650.88,-35333.46,-51350.49,-32988.284999999996,-15419.699999999999,15306.435
-5942.79,-40527.585,-9734.94,-35234.415,-51108.255,-33066.765,-15658.65,15160.635
-5427.45,-41388.479999999996,-11403.855,-35012.52,-50603.895,-32855.49,-15767.73,15010.785
-4666.23,-41185.89,-12829.814999999999,-35367.93,-50891.265,-33170.94,-15907.005,15315.795
-4705.38,-40885.965,-12521.88,-35778.78,-51633.27,-33840.09,-16367.625,15617.16
-5093.595,-40937.534999999996,-11985.48,-35940.06,-52215.93,-34311.015,-16966.62,15779.97
-5632.11,-41646.15,-11316.24,-36108.854999999996,-52612.244999999995,-34522.065,-17478.675,15854.805
-5903.325,-41912.235,-11742.795,-36527.58,-52904.159999999996,-34613.28,-17857.98,15822.585
-6204.69,-42225.165,-12132.09,-36848.34,-53188.38,-34792.65,-18154.665,15676.47
-6461.325,-43147.979999999996,-12696.21,-36567.135,-53305.02,-34998.299999999996,-18314.91,15596.46
-6855.48,-43405.244999999995,-13005.314999999999,-36460.485,-53463.869999999995,-35326.215,-18702.405,15497.369999999999
-7369.155,-44245.845,-12887.189999999999,-36451.89,-53629.244999999995,-35506.305,-19074.059999999998,15424.92
-7570.08,-44321.265,-13876.56,-36683.865,-53847.494999999995,-35595.314999999995,-19354.995,15442.74
-7533.719999999999,-44621.909999999996,-14850.945,-36619.695,-54237.284999999996,-35908.29,-19673.594999999998,15576.525
-7835.264999999999,-44365.994999999995,-14582.115,-37001.07,-55035.27,-36595.08,-20211.165,15609.644999999999
-8575.065,-44671.59,-14310.765,-37429.424999999996,-55365.119999999995,-36996.615,-20584.079999999998,15582.42
-8928.675,-45714.465,-14944.005,-37538.64,-55251.674999999996,-37095.255,-20793.825,15631.785
-8975.295,-45712.439999999995,-15588.314999999999,-37740.78,-55552.049999999996,-37380.195,-21336.48,15700.724999999999
-9708.84,-45300.42,-15500.025,-37996.74,-56026.395,-37742.13,-22038.93,15710.355
-10853.595,-46073.25,-14923.89,-37578.869999999995,-56147.13,-37929.24,-22641.21,15673.32
-10734.615,-48692.88,-15570.449999999999,-36870.659999999996,-55874.61,-37873.799999999996,-22569.57,15923.564999999999
-10226.34,-48971.475,-17681.579999999998,-37015.784999999996,-56064.509999999995,-38219.534999999996,-22415.04,16396.245
-10291.725,-48097.395,-18044.055,-37580.625,-56811.555,-39165.435,-22897.125,16690.005
-10235.789999999999,-47622.33,-17811.765,-38040.93,-57499.695,-40167.135,-23549.895,16847.595
-10816.064999999999,-47349.54,-17616.42,-38517.84,-57892.275,-40647.104999999996,-24106.905,17000.595
-11785.904999999999,-48157.604999999996,-17067.015,-38592.0,-58014.045,-40716.945,-24512.76,17090.055
-12129.21,-49501.395,-17244.765,-38540.159999999996,-57907.89,-40853.295,-24540.75,17262.54
-12028.77,-49600.665,-18672.434999999998,-38838.104999999996,-57840.39,-41126.76,-24561.045,17539.335
-11907.0,-49536.225,-19020.555,-39206.025,-58386.915,-41354.82,-24944.579999999998,17810.505
-12021.795,-50402.79,-19505.385,-39124.53,-58613.445,-41260.68,-25229.475,18225.0
-12524.085,-50224.994999999995,-19848.69,-39253.185,-59020.515,-41279.715,-25565.489999999998,18688.364999999998
-13297.545,-50170.59,-19251.225,-39548.924999999996,-59606.28,-41342.445,-25921.98,18937.665
-13998.779999999999,-50716.215,-18915.075,-39878.505,-59762.61,-41080.455,-26216.37,19074.78
-14023.305,-51710.715,-19397.969999999998,-40111.38,-59647.409999999996,-40645.35,-26305.289999999997,19188.63
-13816.845,-51014.61,-20453.445,-40494.915,-59876.865,-40598.46,-26665.739999999998,19297.17
-14054.355,-51440.534999999996,-20398.274999999998,-40123.215,-60151.14,-40765.409999999996,-27161.325,19402.739999999998
-13795.83,-52096.68,-20450.43,-40024.619999999995,-60604.92,-41098.635,-27351.945,19637.46
-13935.644999999999,-51514.65,-20585.475,-40835.564999999995,-61073.235,-41394.51,-27377.01,19808.594999999998
-14856.029999999999,-51648.255,-21029.265,-41206.005,-60777.854999999996,-41191.65,-27303.93,19927.755
-15161.984999999999,-53193.555,-21413.385,-40949.055,-60552.27,-40984.83,-27139.995,20075.535
-14418.765,-52901.64,-21986.37,-41280.705,-61356.825,-41522.715,-27207.629999999997,20320.92
-14658.975,-51260.579999999994,-21535.605,-42061.725,-62454.465,-42382.979999999996,-27845.325,20504.16
-15647.445,-52357.68,-20452.725,-42014.564999999995,-62441.189999999995,-42387.93,-28159.2,20715.66
-15647.715,-54232.335,-21276.18,-41747.895,-61841.07,-41897.655,-28072.98,21030.75
-14994.314999999999,-53619.165,-22660.2,-41959.26,-62261.28,-42171.39,-28340.46,21333.285
-15317.955,-52914.735,-21648.465,-42377.67,-63091.979999999996,-42688.17,-29150.504999999997,21570.614999999998
-15817.05,-53342.82,-21026.295,-42319.619999999995,-63582.075,-42833.205,-29609.145,21947.129999999997
-15777.539999999999,-53946.0,-22264.065,-42540.525,-63411.704999999994,-42477.615,-29402.73,22442.94
-16063.289999999999,-53402.579999999994,-23595.84,-42783.57,-63236.88,-42163.2,-29617.02,22777.695
-17107.155,-53089.29,-22071.78,-43094.52,-63785.159999999996,-42463.845,-30198.239999999998,22951.17
-17170.739999999998,-54029.564999999995,-21332.969999999998,-43268.58,-64075.32,-42652.305,-30315.555,23244.795
-16061.67,-55763.909999999996,-21918.735,-43198.965,-64101.689999999995,-42761.88,-30320.55,23679.405
-15512.265,-54179.729999999996,-23339.204999999998,-43898.13,-64523.07,-43257.015,-30758.94,24032.655
-16064.144999999999,-53904.15,-23052.059999999998,-44272.89,-64650.06,-43547.4,-31057.469999999998,24247.305
-17012.52,-53781.525,-22677.48,-44580.645,-64638.99,-43581.645,-31210.829999999998,24418.485
-17672.715,-54709.064999999995,-22220.235,-44736.299999999996,-64393.56,-43423.83,-31288.32,24673.905
-17996.94,-55698.119999999995,-22252.004999999997,-44677.215,-64222.02,-43339.86,-31213.079999999998,24929.594999999998
-18362.52,-55177.65,-22969.754999999997,-44978.49,-64321.515,-43443.9,-31177.44,25240.68
-18323.19,-55005.299999999996,-23247.27,-45244.619999999995,-64471.049999999996,-43739.82,-31372.425,25523.504999999997
-17588.52,-54398.835,-23963.265,-45692.955,-64717.604999999996,-44226.72,-31664.565,25795.934999999998
-17116.155,-54497.204999999994,-23958.675,-45599.49,-65051.415,-44870.354999999996,-32130.855,26049.329999999998
-17517.195,-54863.505,-22860.495,-45771.075,-65382.75,-45349.695,-32554.215,26230.41
-17996.489999999998,-55383.795,-22413.69,-45998.145,-65438.64,-45393.255,-32549.805,26431.875
-18793.395,-56101.32,-21958.515,-46175.49,-65383.604999999996,-45264.33,-32441.805,26630.46
-19369.71,-56077.155,-22966.695,-46383.479999999996,-65051.685,-44995.725,-32332.184999999998,26862.704999999998
-19305.989999999998,-57139.74,-23851.53,-46048.455,-64507.905,-44899.424999999996,-32366.655,27186.434999999998
-18616.59,-56496.329999999994,-24752.925,-45836.775,-64946.564999999995,-45688.5,-32833.034999999996,27427.004999999997
-18414.899999999998,-55306.89,-24443.864999999998,-46317.24,-65747.52,-46642.545,-33253.56,27607.995
-18731.52,-55399.32,-23838.75,-46900.665,-66056.48999999999,-47007.494999999995,-33239.159999999996,27905.985
-19107.36,-56234.655,-23715.855,-47090.34,-66041.64,-47027.79,-33139.845,28320.93
-19144.305,-57068.235,-24062.715,-46972.935,-66006.405,-47086.875,-33122.52,28810.754999999997
-18902.52,-56521.395,-25053.57,-47124.314999999995,-66271.14,-47453.445,-33350.805,29248.605
-19015.065,-56757.96,-25045.559999999998,-47371.95,-66367.8,-47686.545,-33634.89,29611.754999999997
-19545.93,-56719.89,-24837.21,-47738.97,-66463.155,-47808.27,-33806.565,29931.03
-20465.82,-56693.88,-24209.145,-47862.765,-66728.565,-47971.17,-33961.005,30249.36
-21035.475,-57887.954999999994,-23916.329999999998,-47714.895,-66560.76,-47748.015,-33797.34,30585.78
-20792.16,-58211.235,-24927.885,-47702.475,-66444.93,-47616.84,-33731.865,30825.809999999998
-20684.024999999998,-57808.305,-25193.925,-47890.53,-66803.805,-47958.659999999996,-33989.04,31019.085
-20733.93,-57910.77,-24730.469999999998,-47966.759999999995,-67279.05,-48405.24,-34195.365,31243.905
-20622.51,-58198.32,-24299.235,-48167.729999999996,-67743.72,-48838.725,-34343.369999999995,31514.085
-20037.87,-57860.325,-25236.36,-48809.205,-67851.27,-48980.295,-34295.445,31819.905
-19934.82,-57361.454999999994,-26447.489999999998,-49374.405,-67700.52,-48918.645,-34403.94,32130.18
-20729.565,-57175.064999999995,-25580.114999999998,-49725.27,-67989.78,-49086.54,-34787.43,32420.34
-21540.329999999998,-57401.64,-25156.62,-50296.814999999995,-67850.86499999999,-48877.784999999996,-34702.965,32760.989999999998
-22264.605,-58266.765,-25344.54,-49947.39,-67586.895,-48618.72,-34543.215,33059.61
-22206.239999999998,-59192.369999999995,-25345.17,-49573.215,-67699.845,-48700.755,-34615.35,33313.409999999996
-21438.36,-59822.549999999996,-25666.739999999998,-49443.165,-67989.015,-49001.354999999996,-34738.47,33551.01
-21122.954999999998,-59531.085,-26457.84,-49693.59,-68188.68,-49182.39,-34715.25,33765.479999999996
-22411.485,-58732.875,-26132.805,-50122.755,-68233.68,-49101.795,-34860.42,33936.479999999996
-23532.12,-59606.009999999995,-25718.489999999998,-50251.32,-67739.94,-48601.439999999995,-34796.744999999995,34144.47
-22621.094999999998,-59973.795,-26844.57,-50223.78,-67844.385,-48769.965,-34664.13,34404.21
-21385.98,-58840.829999999994,-27542.52,-50453.369999999995,-68713.56,-49822.244999999995,-35062.065,34676.729999999996
-21529.079999999998,-58234.454999999994,-26986.05,-50953.77,-69139.98,-50357.744999999995,-35519.715,34982.369999999995
-22156.695,-59132.024999999994,-26170.739999999998,-51325.965,-69194.205,-50266.665,-35378.28,35327.88
-22317.12,-59997.825,-26042.579999999998,-51490.89,-69209.145,-50211.045,-35251.92,35677.799999999996
-22413.239999999998,-59398.38,-26577.09,-51717.6,-69307.605,-50348.43,-35652.645,35979.795
-23203.62,-59530.32,-26391.51,-51643.079999999994,-69215.76,-50280.705,-36004.86,36246.555
-23282.1,-60608.115,-26117.1,-51559.47,-69327.18,-50385.465,-35997.93,36554.985
-22201.965,-60541.2,-27240.84,-51735.15,-69716.745,-50845.455,-35971.29,36924.705
-21829.05,-59452.649999999994,-27802.62,-52483.365,-70049.43,-51330.78,-36248.49,37306.439999999995
-22599.045,-59309.549999999996,-27364.86,-53004.645,-69914.52,-51354.494999999995,-36409.14,37685.79
-23817.645,-60433.604999999996,-26361.989999999998,-53042.49,-69610.31999999999,-51224.04,-36435.375,38099.79
-23775.614999999998,-61968.825,-26898.885,-53436.735,-68860.665,-50980.905,-36115.695,38631.6
-22728.149999999998,-60896.52,-28857.195,-53581.32,-69120.22499999999,-51570.27,-36354.915,39151.799999999996
-22674.195,-59425.695,-28563.84,-53844.03,-69925.41,-52422.659999999996,-37154.115,39516.299999999996
-23054.445,-60326.505,-27567.495,-53876.295,-70082.145,-52513.515,-37323.09,39769.92
-23368.815,-60608.97,-28069.649999999998,-54025.02,-69957.405,-52218.45,-37228.635,39973.725
-24094.26,-60177.149999999994,-27805.95,-54435.509999999995,-70122.51,-52074.854999999996,-37491.479999999996,40137.93
-24851.61,-61482.465,-26931.195,-54401.31,-69959.61,-51778.079999999994,-37593.045,40306.095
-24560.73,-62866.259999999995,-27566.145,-54084.555,-69686.64,-51519.869999999995,-37310.31,40502.159999999996
-23916.149999999998,-61538.13,-29031.93,-54301.814999999995,-70086.465,-51896.295,-37468.979999999996,40695.299999999996
-23827.995,-61017.84,-28983.105,-54348.57,-70474.05,-52413.615,-37900.53,40911.119999999995
-23812.155,-61217.28,-28393.965,-54710.729999999996,-70800.39,-52739.415,-38075.534999999996,41172.479999999996
-23948.01,-60913.619999999995,-28914.975,-55317.555,-70781.58,-52587.18,-38090.97,41435.955
-24605.504999999997,-61413.345,-28704.239999999998,-55292.354999999996,-70621.425,-52385.67,-38271.78,41681.385
-25514.19,-61343.28,-28430.145,-55231.965,-70697.34,-52442.369999999995,-38447.369999999995,41910.03
-25900.739999999998,-62180.64,-28011.6,-55065.104999999996,-70718.985,-52419.915,-38531.34,42130.17
-24787.98,-63354.555,-28780.515,-55138.14,-70778.11499999999,-52433.28,-38153.07,42402.33
-23973.975,-62730.63,-30485.295,-55511.82,-70875.855,-52627.095,-37976.67,42684.885
-24856.155,-61671.509999999995,-30675.96,-55841.67,-70866.72,-52721.415,-38356.244999999995,42972.345
-25595.594999999998,-62151.479999999996,-30112.11,-55952.325,-70913.565,-52719.165,-38360.07,43318.665
-25707.78,-62255.564999999995,-29624.715,-56515.5,-71536.275,-53077.365,-38228.76,43738.11
-25494.614999999998,-63243.225,-29275.605,-56810.159999999996,-71822.87999999999,-53202.104999999996,-38193.84,44209.125
-25153.379999999997,-63712.619999999995,-29753.954999999998,-56830.994999999995,-71873.86499999999,-53314.92,-38333.025,44676.27
-25061.399999999998,-62845.2,-30790.44,-56809.845,-72107.50499999999,-53770.185,-38656.845,45115.604999999996
-25307.01,-62860.77,-31285.62,-56793.96,-72149.535,-53896.229999999996,-38622.51,45528.03
