ch_0,ch_1,ch_2,ch_3,ch_4,ch_5,ch_6,ch_7
14691.51,-30435.57,16146.72,-10468.98,-19445.445,-43417.755,4779.585,41034.375
14755.455,-30310.425,16322.535,-10202.175,-19048.545,-43161.84,4666.139999999999,41032.26
14772.33,-30284.64,16356.914999999999,-10116.945,-18886.815,-43000.83,4674.33,41033.97
14735.115,-30371.715,16213.68,-10394.82,-19351.844999999998,-43172.595,4772.34,41020.65
14733.855,-30371.805,16197.3,-10516.994999999999,-19764.809999999998,-43245.854999999996,4729.1849999999995,41017.049999999996
14746.814999999999,-30380.355,16181.91,-10531.755,-19774.079999999998,-43474.14,4682.429999999999,41034.06
14656.59,-30498.704999999998,16057.26,-10484.82,-19232.684999999998,-43519.229999999996,4703.04,41024.159999999996
14683.635,-30410.37,16185.42,-10222.065,-18770.04,-43200.18,4712.804999999999,41008.32
14727.644999999999,-30392.594999999998,16143.255,-10297.619999999999,-18910.44,-43031.025,4685.58,40996.979999999996
14663.43,-30529.62,15941.97,-10494.404999999999,-19108.71,-43159.5,4829.8949999999995,40954.32
14682.375,-30512.969999999998,15971.49,-10472.94,-19129.005,-43152.39,4868.37,40921.02
14736.465,-30442.635,15973.335,-10584.404999999999,-19404.27,-43060.814999999995,4815.2699999999995,40918.095
14759.01,-30412.44,15922.71,-10730.25,-19813.68,-43280.64,4808.385,40919.174999999996
14734.394999999999,-30437.414999999997,15921.0,-10656.72,-19644.255,-43630.155,4825.349999999999,40909.365
14660.505,-30449.07,16068.824999999999,-10318.095,-18949.815,-43211.07,4767.48,40914.63
14611.635,-30460.14,16155.404999999999,-10267.289999999999,-18938.25,-43050.465,4694.22,40921.83
14632.83,-30377.114999999998,16317.404999999999,-10235.205,-19057.77,-43060.14,4687.47,40912.92
14671.26,-30310.965,16432.785,-10176.66,-19137.735,-43161.479999999996,4712.175,40905.99
14647.185,-30364.605,16362.72,-10259.414999999999,-19296.045,-43414.38,4708.8,40899.42
14598.404999999999,-30450.51,16255.17,-10349.19,-19269.855,-43439.31,4758.3,40862.52
14617.574999999999,-30438.765,16272.72,-10355.984999999999,-19253.745,-43254.45,4742.639999999999,40822.695
14622.525,-30438.0,16257.195,-10408.59,-19412.415,-43304.895,4733.865,40808.43
14669.01,-30376.485,16248.33,-10382.355,-19386.855,-43419.015,4744.53,40820.085
14669.955,-30381.93,16162.965,-10343.654999999999,-19163.61,-43233.75,4764.599999999999,40812.479999999996
14655.15,-30434.445,16038.269999999999,-10431.045,-19210.274999999998,-43166.295,4737.915,40813.424999999996
14654.835,-30463.649999999998,15975.18,-10563.164999999999,-19419.12,-43336.619999999995,4737.285,40827.96
14648.67,-30454.335,16021.305,-10557.72,-19465.739999999998,-43401.42,4765.545,40824.45
14614.289999999999,-30438.855,16129.89,-10421.505,-19313.594999999998,-43253.055,4737.554999999999,40814.01
14599.35,-30406.77,16250.76,-10296.045,-19123.29,-43187.13,4723.155,40812.21
14605.875,-30407.265,16274.07,-10270.35,-19075.364999999998,-43208.325,4739.13,40782.78
14607.269999999999,-30412.17,16293.644999999999,-10227.06,-19012.95,-43142.985,4675.545,40737.375
14691.465,-30348.09,16314.39,-10247.039999999999,-19099.62,-43017.435,4562.91,40727.61
14702.805,-30384.449999999997,16151.22,-10473.164999999999,-19519.469999999998,-43270.11,4779.585,40719.735
14563.305,-30560.445,15848.055,-10720.755,-19763.55,-43617.96,4872.0599999999995,40707.36
14531.894999999999,-30577.86,15843.96,-10596.96,-19402.11,-43441.92,4734.855,40727.385
14573.34,-30508.379999999997,15989.039999999999,-10432.89,-19087.875,-43216.965,4720.679999999999,40749.57
14544.0,-30537.495,15997.275,-10497.24,-19225.035,-43287.84,4807.26,40733.955
14539.994999999999,-30554.594999999998,15988.455,-10603.89,-19485.315,-43439.354999999996,4784.445,40729.229999999996
14585.265,-30526.335,16031.789999999999,-10683.449999999999,-19708.245,-43314.525,4675.7699999999995,40730.76
14578.244999999999,-30563.324999999997,15937.019999999999,-10844.91,-19998.63,-43519.14,4737.42,40712.58
14583.06,-30552.66,15854.31,-10774.17,-19869.075,-43694.955,4817.745,40676.49
14574.33,-30526.335,15815.97,-10598.984999999999,-19394.73,-43212.33,4713.345,40649.174999999996
14634.72,-30465.0,15806.385,-10607.265,-19515.51,-43387.784999999996,4534.245,40655.205
14569.695,-30572.28,15714.09,-10762.875,-19865.565,-43764.39,4780.125,40669.515
14478.029999999999,-30627.36,15814.035,-10706.715,-19988.055,-43754.174999999996,4983.3,40671.225
14427.81,-30599.1,16026.885,-10493.55,-19535.265,-43610.85,4783.095,40677.795
14456.609999999999,-30517.335,16227.494999999999,-10221.615,-18852.344999999998,-43346.07,4621.23,40692.869999999995
14533.56,-30387.239999999998,16407.809999999998,-10058.31,-18628.695,-42995.88,4621.455,40687.11
14609.16,-30285.629999999997,16497.72,-10150.605,-18948.645,-43118.685,4689.72,40658.4
14605.019999999999,-30295.305,16443.675,-10291.815,-19265.085,-43225.92,4707.945,40637.115
14555.07,-30362.895,16354.26,-10297.574999999999,-19279.44,-43217.145,4744.665,40617.99
14564.205,-30359.789999999997,16339.41,-10175.625,-19069.38,-43233.93,4713.705,40600.755
14577.164999999999,-30360.195,16298.82,-10161.63,-18961.38,-43093.395,4673.88,40590.135
14536.035,-30441.149999999998,16167.33,-10401.345,-19285.965,-43104.33,4753.845,40601.25
14523.074999999999,-30488.129999999997,16084.08,-10566.539999999999,-19564.605,-43338.465,4794.885,40628.07
14509.26,-30503.024999999998,16108.515,-10489.095,-19439.325,-43342.965,4794.66,40632.345
14486.85,-30526.155,16174.529999999999,-10416.645,-19461.645,-43410.869999999995,4774.455,40636.575
14418.63,-30616.02,16139.205,-10471.32,-19453.184999999998,-43508.384999999995,4760.955,40619.07
14409.585,-30615.93,16044.029999999999,-10466.595,-19289.204999999998,-43471.53,4736.61,40593.42
14474.385,-30566.024999999998,15828.885,-10540.664999999999,-19330.649999999998,-43399.17,4775.445,40579.965
14487.84,-30571.289999999997,15605.595,-10635.48,-19338.84,-43358.895,4824.36,40545.045
14495.535,-30554.954999999998,15653.519999999999,-10716.66,-19326.239999999998,-43300.979999999996,4812.48,40525.604999999996
14510.699999999999,-30517.965,15855.57,-10773.494999999999,-19668.645,-43193.97,4797.945,40525.604999999996
14526.045,-30478.68,15975.945,-10829.43,-20171.835,-43479.09,4782.465,40532.625
14467.41,-30525.57,15924.779999999999,-10791.855,-20050.2,-43607.744999999995,4769.054999999999,40537.305
14486.67,-30459.87,16054.019999999999,-10633.859999999999,-19903.005,-43518.735,4747.7699999999995,40549.59
14446.035,-30532.094999999998,16000.109999999999,-10848.6,-20415.329999999998,-43736.939999999995,4843.71,40556.205
14352.84,-30636.495,15940.845,-10837.08,-20201.76,-43696.979999999996,4784.535,40536.36
14333.67,-30620.655,16044.164999999999,-10578.15,-19544.625,-43467.57,4668.929999999999,40522.32
14503.455,-30367.485,16346.699999999999,-10241.01,-19310.355,-43286.58,4645.889999999999,40522.77
14681.835,-30184.065,16495.515,-10248.029999999999,-19708.965,-43654.365,4666.005,40504.005
14609.744999999999,-30302.414999999997,16416.27,-10306.529999999999,-19633.77,-43772.445,4667.535,40479.705
14397.975,-30526.199999999997,16280.64,-10213.289999999999,-18944.594999999998,-43357.005,4705.605,40465.799999999996
14283.314999999999,-30637.215,16206.3,-10108.89,-18473.399999999998,-42966.27,4625.099999999999,40454.369999999995
14372.82,-30571.469999999998,16130.88,-10133.685,-18651.42,-43152.795,4661.82,40480.515
14446.8,-30526.289999999997,16000.38,-10284.705,-18972.315,-43358.13,4771.845,40515.84
14423.085,-30544.11,15959.744999999999,-10374.255,-19063.934999999998,-43271.46,4770.585,40512.555
14404.14,-30570.57,15965.955,-10432.98,-19107.54,-43218.27,4790.925,40500.945
14353.515,-30639.239999999998,15908.535,-10542.33,-19272.239999999998,-43231.095,4794.525,40487.354999999996
14384.025,-30602.34,15921.045,-10645.515,-19564.02,-43365.284999999996,4775.175,40480.47
14387.894999999999,-30586.5,15952.095,-10642.23,-19607.805,-43414.56,4763.97,40456.034999999996
14416.064999999999,-30518.145,16063.92,-10536.39,-19445.13,-43329.555,4762.485,40425.435
14465.07,-30427.739999999998,16226.189999999999,-10354.095,-19166.399999999998,-43096.77,4649.804999999999,40425.075
14456.789999999999,-30440.789999999997,16236.09,-10452.465,-19399.454999999998,-43168.275,4665.735,40436.46
14431.275,-30504.914999999997,16075.305,-10812.869999999999,-20087.415,-43332.615,4692.375,40437.045
14391.135,-30620.789999999997,15839.73,-11108.835,-20702.16,-43994.97,4838.264999999999,40457.475
14310.045,-30687.704999999998,15765.57,-10890.945,-20283.795,-44436.555,4779.855,40468.994999999995
14269.68,-30664.305,15851.474999999999,-10422.81,-19004.895,-43652.384999999995,4693.995,40468.409999999996
14332.59,-30596.715,15927.21,-10303.289999999999,-18711.63,-43116.795,4719.599999999999,40458.645
14365.08,-30566.204999999998,15990.21,-10384.244999999999,-19093.094999999998,-43159.14,4737.735,40432.32
14429.789999999999,-30483.0,16104.51,-10411.109999999999,-19279.26,-43185.375,4690.62,40406.31
14460.435,-30446.504999999997,16147.394999999999,-10448.73,-19464.39,-43323.165,4656.24,40391.685
14335.019999999999,-30596.67,15996.644999999999,-10634.805,-19696.77,-43528.229999999996,4702.32,40393.26
14291.685,-30635.37,15934.545,-10662.975,-19607.399999999998,-43662.104999999996,4696.875,40402.35
14333.984999999999,-30546.585,16079.805,-10437.525,-19107.809999999998,-43199.1,4621.455,40410.9
14333.175,-30534.75,16143.435,-10396.035,-19143.27,-43068.645,4739.3099999999995,40440.735
14368.545,-30496.094999999998,16201.17,-10393.425,-19343.79,-43532.055,4783.86,40468.005
14347.394999999999,-30518.28,16190.369999999999,-10359.945,-19184.355,-43443.54,4733.415,40452.39
14312.744999999999,-30562.515,16146.494999999999,-10378.035,-19111.815,-43175.475,4714.785,40428.314999999995
14344.785,-30560.895,16098.84,-10468.574999999999,-19276.829999999998,-43333.74,4734.585,40420.08
14330.475,-30606.12,16012.619999999999,-10523.925,-19364.67,-43395.119999999995,4737.599999999999,40396.68
14299.65,-30650.039999999997,15922.035,-10565.01,-19422.765,-43384.59,4801.995,40378.635
14338.26,-30568.184999999998,15978.734999999999,-10509.93,-19389.87,-43323.165,4757.804999999999,40385.655
14377.05,-30491.055,16062.66,-10575.855,-19709.145,-43228.305,4701.195,40386.24
14306.4,-30585.645,15946.154999999999,-10877.895,-20392.38,-43653.24,4749.12,40386.645
14241.285,-30655.62,15925.68,-10793.34,-19999.26,-43909.875,4728.105,40406.805
14242.005,-30610.89,16075.17,-10405.395,-19130.489999999998,-43453.259999999995,4702.545,40421.295
14296.545,-30556.664999999997,16122.195,-10320.48,-18989.684999999998,-43294.994999999995,4716.315,40415.67
14312.744999999999,-30570.93,16065.539999999999,-10434.69,-19197.855,-43350.57,4711.815,40410.81
14301.63,-30586.364999999998,16040.07,-10486.755,-19331.64,-43368.705,4720.545,40395.284999999996
14314.005,-30580.469999999998,16049.835,-10551.195,-19522.8,-43498.979999999996,4747.7699999999995,40357.799999999996
14333.67,-30584.61,16064.279999999999,-10578.195,-19563.075,-43533.134999999995,4726.9349999999995,40329.585
14319.72,-30603.239999999998,16014.06,-10590.885,-19486.755,-43509.15,4761.72,40328.505
14289.57,-30643.02,15841.08,-10647.045,-19490.895,-43371.45,4771.08,40331.52
14268.285,-30686.625,15674.31,-10761.84,-19619.64,-43371.134999999995,4765.365,40338.18
14262.885,-30675.015,15724.98,-10730.789999999999,-19639.755,-43326.09,4686.75,40350.51
14239.755,-30681.945,15843.285,-10682.279999999999,-19645.065,-43557.884999999995,4693.815,40375.08
14195.07,-30694.23,15948.0,-10656.045,-19487.745,-43792.02,4759.5599999999995,40370.31
14238.0,-30568.995,16154.234999999999,-10450.17,-19174.545,-43447.095,4723.47,40360.229999999996
14245.335,-30568.05,16107.345,-10489.185,-19281.78,-43242.705,4719.195,40352.895
14304.555,-30525.885,16101.675,-10527.029999999999,-19482.48,-43311.6,4694.22,40334.31
14302.484999999999,-30582.495,16050.42,-10542.42,-19529.55,-43367.49,4740.389999999999,40314.24
14222.295,-30701.34,15907.68,-10613.565,-19495.35,-43532.865,4835.295,40309.875
14220.135,-30683.925,15821.91,-10672.065,-19515.329999999998,-43525.53,4758.615,40315.68
14256.855,-30639.285,15749.144999999999,-10644.21,-19443.375,-43468.65,4698.2699999999995,40330.125
14231.385,-30674.204999999998,15671.07,-10633.455,-19364.579999999998,-43383.15,4756.995,40352.985
14224.545,-30665.835,15735.644999999999,-10669.77,-19543.59,-43380.494999999995,4728.96,40360.905
14232.555,-30640.05,15856.109999999999,-10718.955,-19707.39,-43408.439999999995,4711.41,40340.655
14264.234999999999,-30577.094999999998,16002.9,-10675.484999999999,-19764.945,-43548.615,4690.845,40318.335
14174.82,-30632.445,16100.505,-10556.775,-19593.36,-43746.345,4693.23,40297.005
14138.685,-30651.93,16179.93,-10375.605,-19223.64,-43607.924999999996,4696.514999999999,40278.42
14216.76,-30568.68,16241.445,-10288.664999999999,-19086.975,-43334.505,4695.66,40263.659999999996
14204.609999999999,-30617.055,16089.39,-10386.675,-19191.87,-43284.06,4730.085,40266.63
14182.335,-30628.125,16010.01,-10431.09,-19228.59,-43234.92,4743.36,40267.575
14170.23,-30649.14,15964.785,-10462.994999999999,-19250.28,-43239.465,4742.955,40281.795
14174.144999999999,-30641.67,16019.505,-10464.029999999999,-19307.114999999998,-43361.189999999995,4702.1849999999995,40301.775
14233.41,-30555.629999999997,16158.51,-10405.44,-19310.805,-43372.305,4678.92,40305.555
14233.68,-30566.385,16094.16,-10506.42,-19456.155,-43412.22,4745.115,40303.485
14226.435,-30599.91,15872.984999999999,-10714.59,-19773.0,-43449.525,4763.835,40295.655
14224.32,-30648.239999999998,15713.279999999999,-10880.189999999999,-19985.355,-43750.845,4798.304999999999,40272.659999999996
14173.47,-30716.864999999998,15737.67,-10775.34,-19629.989999999998,-43695.494999999995,4765.679999999999,40242.6
14203.574999999999,-30655.305,15876.63,-10634.67,-19474.695,-43260.975,4715.37,40226.49
14237.055,-30614.715,15918.119999999999,-10755.449999999999,-20051.505,-43483.14,4706.505,40216.59
14182.83,-30654.315,15944.31,-10771.74,-20018.835,-43849.17,4666.275,40227.21
14132.835,-30639.87,16076.744999999999,-10486.664999999999,-19320.344999999998,-43667.28,4684.1849999999995,40247.415
14201.865,-30513.735,16244.595,-10259.955,-18994.184999999998,-43241.67,4658.355,40267.575
14244.39,-30465.765,16276.949999999999,-10324.845,-19251.27,-43209.63,4641.66,40282.695
14269.994999999999,-30485.07,16179.39,-10511.369999999999,-19693.665,-43436.07,4683.195,40283.865
14195.744999999999,-30605.129999999997,15991.785,-10654.02,-19861.29,-43773.165,4776.21,40255.695
14102.1,-30694.14,15956.144999999999,-10529.685,-19458.0,-43698.33,4692.6449999999995,40219.56
