ch_0,ch_1,ch_2,ch_3,ch_4,ch_5,ch_6,ch_7
-10388.07,-40313.34,-3140.37,-41009.85,-21565.17,-9541.664999999999,-5992.469999999999,5831.55
-10393.02,-40299.525,-3155.265,-41023.35,-21585.285,-9571.095,-5975.639999999999,5824.17
-10401.074999999999,-40282.965,-3143.295,-41002.11,-21557.385,-9550.529999999999,-5979.014999999999,5812.425
-10412.91,-40234.455,-3115.62,-40980.33,-21533.805,-9548.64,-5994.495,5806.844999999999
-10438.38,-40246.29,-3128.1749999999997,-40975.604999999996,-21510.27,-9539.91,-5989.995,5798.474999999999
-10462.14,-40303.35,-3145.5899999999997,-40974.93,-21491.774999999998,-9487.574999999999,-5946.66,5803.785
-10455.885,-40324.005,-3134.97,-40958.055,-21456.989999999998,-9414.585,-5926.139999999999,5813.91
-10424.205,-40274.145,-3102.39,-40957.515,-21467.835,-9429.57,-5963.58,5811.66
-10379.789999999999,-40206.104999999996,-3066.165,-40953.915,-21491.954999999998,-9477.0,-5971.815,5834.429999999999
-10387.08,-40213.575,-3039.525,-40954.185,-21507.84,-9505.529999999999,-5977.44,5834.61
-10392.705,-40231.755,-3053.88,-40951.215,-21491.505,-9490.23,-5979.465,5834.745
-10381.545,-40231.575,-3070.665,-40956.93,-21479.309999999998,-9475.875,-6004.125,5843.655
-10367.279999999999,-40193.955,-3047.13,-40953.869999999995,-21485.969999999998,-9492.029999999999,-6053.4,5848.245
-10359.225,-40179.78,-3048.2999999999997,-40957.65,-21498.03,-9510.795,-6034.815,5849.099999999999
-10369.305,-40205.025,-3084.0299999999997,-41005.08,-21570.524999999998,-9566.595,-5953.1849999999995,5851.62
-10390.32,-40177.89,-3079.2149999999997,-41015.564999999995,-21585.329999999998,-9556.02,-5905.755,5825.565
-10415.025,-40124.025,-3025.71,-40950.494999999995,-21488.94,-9474.84,-5957.325,5785.2
-10415.205,-40063.095,-3018.42,-40954.32,-21488.76,-9486.135,-5989.365,5769.179999999999
-10416.195,-40060.89,-3030.165,-40974.705,-21507.614999999998,-9499.365,-5980.545,5787.63
-10432.305,-40093.695,-3034.575,-40976.235,-21500.37,-9487.71,-5968.755,5802.21
-10464.39,-40144.635,-3033.4049999999997,-40970.34,-21489.84,-9474.705,-5961.6449999999995,5806.575
-10448.19,-40285.665,-3055.23,-40963.635,-21483.675,-9472.545,-5959.98,5821.469999999999
-10405.755,-40272.255,-3038.1749999999997,-40957.2,-21495.285,-9496.89,-5985.495,5824.26
-10363.005,-40166.505,-2976.255,-40935.689999999995,-21495.78,-9510.705,-6038.235,5832.99
-10340.82,-40087.53,-2950.1549999999997,-40942.935,-21519.225,-9533.97,-6062.355,5842.215
-10353.69,-40055.76,-2962.755,-40968.765,-21542.175,-9553.994999999999,-6016.32,5836.7699999999995
-10386.81,-40031.82,-2989.665,-41002.604999999996,-21566.969999999998,-9556.695,-5913.495,5822.235
-10416.51,-40082.354999999996,-2968.875,-40964.625,-21500.864999999998,-9478.755,-5923.575,5804.594999999999
-10440.09,-40030.02,-2928.015,-40941.63,-21467.024999999998,-9451.08,-5966.865,5780.07
-10426.005,-39952.845,-2893.0499999999997,-40953.24,-21496.68,-9490.05,-5982.389999999999,5793.974999999999
-10406.115,-40091.49,-2957.265,-40973.445,-21512.114999999998,-9508.815,-5978.745,5827.05
-10414.619999999999,-40226.985,-2987.73,-40969.485,-21510.765,-9510.615,-5979.915,5833.575
-10414.17,-40208.354999999996,-2947.9049999999997,-40954.455,-21492.315,-9485.595,-5992.0199999999995,5821.83
-10406.475,-40150.575,-2932.9649999999997,-40959.405,-21491.28,-9495.135,-6013.889999999999,5801.3099999999995
-10413.27,-40090.814999999995,-2910.96,-40950.0,-21475.305,-9487.08,-5998.635,5806.485
-10432.89,-40091.715,-2908.71,-40952.159999999996,-21478.23,-9491.984999999999,-5965.0199999999995,5815.215
-10417.185,-40113.854999999996,-2914.245,-40962.689999999995,-21493.079999999998,-9493.83,-5943.78,5832.179999999999
-10393.965,-40089.825,-2919.42,-40982.49,-21510.675,-9495.539999999999,-5946.66,5829.885
-10409.49,-40098.015,-2924.055,-40979.34,-21505.95,-9491.13,-5955.12,5826.0599999999995
-10410.795,-40107.735,-2938.365,-40988.07,-21523.14,-9515.565,-5988.195,5814.99
-10404.0,-40052.115,-2910.33,-40978.305,-21531.329999999998,-9535.275,-6015.24,5812.74
-10390.455,-40024.08,-2908.665,-40976.145,-21531.195,-9545.85,-6008.49,5818.23
-10385.279999999999,-40024.619999999995,-2925.225,-40998.96,-21549.105,-9556.38,-5976.2699999999995,5824.215
-10386.315,-40045.725,-2938.185,-41023.215,-21569.085,-9572.039999999999,-5975.28,5831.505
-10394.505,-40058.505,-2927.7,-41035.005,-21593.07,-9612.539999999999,-5991.075,5829.705
-10369.17,-40017.78,-2895.165,-41018.625,-21577.32,-9606.824999999999,-6004.08,5852.429999999999
-10330.244999999999,-39970.08,-2858.85,-40987.979999999996,-21547.89,-9567.72,-6022.844999999999,5889.195
-10347.705,-39954.869999999995,-2837.9249999999997,-40953.645,-21489.255,-9490.005,-6060.96,5866.38
-10384.02,-39950.729999999996,-2846.565,-40950.45,-21490.515,-9486.135,-6046.38,5816.295
-10406.925,-39951.405,-2886.93,-41007.24,-21555.315,-9527.31,-5934.69,5798.88
-10449.81,-39956.174999999996,-2905.29,-41002.92,-21512.79,-9459.09,-5879.025,5759.6849999999995
-10443.69,-39942.27,-2884.725,-40984.2,-21479.04,-9413.775,-5920.965,5771.79
-10449.404999999999,-39903.975,-2862.72,-40983.39,-21501.495,-9461.25,-5950.17,5778.2699999999995
-10442.475,-39947.085,-2862.495,-40978.71,-21520.755,-9527.58,-5936.804999999999,5811.885
-10452.105,-40055.67,-2866.95,-40942.034999999996,-21455.19,-9473.94,-5928.48,5818.1849999999995
-10450.395,-40097.564999999995,-2886.795,-40949.955,-21443.309999999998,-9445.455,-5940.135,5805.36
-10440.0,-40027.185,-2870.5499999999997,-40958.865,-21463.515,-9452.52,-5946.75,5804.55
-10440.0,-39993.345,-2864.3399999999997,-40954.68,-21457.844999999998,-9446.49,-5968.62,5789.474999999999
-10409.039999999999,-39969.405,-2851.785,-40950.72,-21458.34,-9456.75,-5990.715,5799.195
-10416.69,-39960.854999999996,-2844.72,-40963.994999999995,-21479.76,-9492.074999999999,-5999.94,5806.08
-10405.8,-39941.595,-2838.33,-40977.045,-21506.13,-9516.914999999999,-5995.44,5816.88
-10393.109999999999,-39941.595,-2803.23,-40963.455,-21507.39,-9523.664999999999,-5962.23,5836.7699999999995
-10386.27,-39943.845,-2794.68,-40963.229999999996,-21512.835,-9534.555,-5955.795,5836.95
-10396.17,-39896.595,-2788.83,-40960.08,-21498.39,-9518.13,-5969.474999999999,5819.445
-10413.765,-39883.409999999996,-2807.0099999999998,-40983.345,-21508.875,-9517.23,-5972.8949999999995,5805.63
-10437.029999999999,-39865.994999999995,-2804.265,-40995.63,-21517.515,-9525.105,-5980.724999999999,5786.28
-10442.88,-39824.729999999996,-2789.055,-40987.395,-21504.195,-9515.115,-5977.215,5784.705
-10461.33,-39881.295,-2859.975,-41023.71,-21517.829999999998,-9516.645,-5969.969999999999,5791.094999999999
-10469.34,-40032.945,-2904.93,-41001.165,-21490.515,-9492.66,-5959.755,5804.46
-10460.835,-40049.909999999996,-2827.98,-40952.655,-21478.32,-9491.76,-5960.429999999999,5820.075
-10396.17,-39974.895,-2763.6749999999997,-40948.38,-21503.204999999998,-9522.18,-5970.465,5840.01
-10363.68,-39850.29,-2727.9449999999997,-40954.545,-21522.329999999998,-9546.029999999999,-5993.325,5823.99
-10356.975,-39808.17,-2732.58,-40954.95,-21514.274999999998,-9535.32,-5991.165,5828.535
-10387.845,-39818.159999999996,-2742.12,-40951.979999999996,-21495.69,-9513.765,-5986.665,5818.094999999999
-10400.94,-39844.125,-2766.915,-40967.369999999995,-21496.005,-9505.44,-5992.965,5809.86
-10397.88,-39844.89,-2754.855,-40964.445,-21497.085,-9506.07,-6004.53,5820.4349999999995
-10370.565,-39827.97,-2722.0499999999997,-40949.369999999995,-21495.555,-9507.555,-6001.514999999999,5834.5199999999995
-10353.375,-39778.47,-2729.43,-40980.555,-21537.18,-9558.494999999999,-5995.665,5835.33
-10365.21,-39787.424999999996,-2735.0099999999998,-40983.93,-21541.77,-9572.355,-5970.15,5838.885
-10399.095,-39873.96,-2761.29,-40980.78,-21528.54,-9551.654999999999,-5960.115,5830.335
-10427.445,-39873.555,-2771.73,-40994.369999999995,-21528.63,-9533.07,-5979.285,5810.804999999999
-10409.13,-39793.455,-2744.64,-41001.93,-21531.015,-9533.654999999999,-6001.065,5804.325
-10394.234999999999,-39755.43,-2733.12,-41011.155,-21553.515,-9563.85,-5993.1449999999995,5822.91
-10353.914999999999,-39762.405,-2746.89,-41024.115,-21584.07,-9598.994999999999,-5977.665,5841.405
-10336.545,-39711.78,-2729.88,-40988.655,-21526.605,-9556.515,-5983.245,5813.82
-10410.795,-39625.244999999995,-2700.18,-40941.314999999995,-21447.765,-9497.475,-6028.29,5768.6849999999995
-10439.369999999999,-39665.7,-2714.355,-40954.68,-21456.945,-9506.925,-6057.719999999999,5816.16
-10414.305,-39889.26,-2765.3399999999997,-40976.415,-21474.899999999998,-9500.67,-6030.54,5859.719999999999
-10387.89,-39744.09,-2738.16,-40985.505,-21493.98,-9493.109999999999,-5971.7699999999995,5836.365
-10440.225,-39688.83,-2719.08,-40991.895,-21518.594999999998,-9530.279999999999,-5922.315,5806.755
-10457.82,-39834.99,-2735.8199999999997,-41002.29,-21526.695,-9516.06,-5897.07,5810.76
-10435.005,-39978.72,-2760.795,-40988.7,-21493.53,-9445.32,-5876.235,5825.5199999999995
-10430.19,-39890.07,-2718.0,-40950.314999999995,-21446.594999999998,-9431.505,-5917.815,5817.195
-10422.855,-39855.24,-2689.65,-40948.965,-21456.585,-9473.13,-5948.19,5814.09
-10412.414999999999,-39781.439999999995,-2678.13,-40970.385,-21484.395,-9499.32,-5971.23,5805.8099999999995
-10389.33,-39729.15,-2651.085,-40953.195,-21468.6,-9484.154999999999,-5988.42,5822.01
-10375.605,-39804.479999999996,-2678.13,-40966.29,-21478.905,-9473.94,-5978.07,5855.3099999999995
-10389.779999999999,-39819.375,-2691.045,-40989.465,-21501.45,-9488.835,-5970.915,5843.205
-10395.27,-39773.52,-2670.48,-40985.865,-21513.195,-9517.365,-5942.205,5830.83
-10431.765,-39782.295,-2687.67,-40995.27,-21521.295,-9533.52,-5931.99,5801.085
-10425.465,-39736.845,-2670.0299999999997,-40981.095,-21497.265,-9507.15,-5953.545,5800.995
-10445.85,-39704.49,-2653.2,-40979.07,-21491.864999999998,-9505.845,-5969.969999999999,5785.38
-10416.375,-39681.494999999995,-2651.805,-40976.46,-21486.149999999998,-9503.46,-5972.849999999999,5796.855
-10406.97,-39748.545,-2665.98,-40973.939999999995,-21479.175,-9495.765,-5963.175,5815.17
-10414.8,-39776.04,-2646.54,-40971.555,-21472.38,-9492.119999999999,-5962.005,5813.82
-10417.904999999999,-39722.76,-2647.5299999999997,-40986.405,-21480.614999999998,-9498.914999999999,-5971.95,5809.905
-10444.32,-39728.79,-2657.745,-41000.58,-21488.355,-9503.01,-5979.24,5803.29
-10458.855,-39709.439999999995,-2659.815,-41022.674999999996,-21507.57,-9515.34,-5984.639999999999,5791.905
-10442.205,-39747.195,-2623.095,-40990.545,-21480.795,-9493.83,-5968.349999999999,5811.21
-10388.475,-39717.314999999995,-2578.86,-40975.784999999996,-21490.155,-9517.365,-5979.24,5824.8
-10345.005,-39685.994999999995,-2537.415,-40962.465,-21488.805,-9526.815,-5991.48,5843.429999999999
-10327.23,-39640.905,-2546.73,-41005.619999999995,-21539.745,-9564.525,-6028.155,5846.58
-10346.49,-39643.92,-2575.5299999999997,-41045.85,-21588.075,-9599.58,-6036.255,5848.65
-10362.105,-39704.715,-2587.41,-41047.92,-21593.745,-9617.58,-5994.045,5851.215
-10384.92,-39692.34,-2579.49,-41037.795,-21589.335,-9608.67,-5945.58,5835.465
-10390.904999999999,-39672.18,-2541.5099999999998,-40989.78,-21499.02,-9504.585,-5964.255,5821.695
-10385.369999999999,-39629.88,-2499.705,-40920.525,-21389.715,-9434.115,-5986.889999999999,5828.76
-10398.465,-39712.409999999996,-2568.4649999999997,-40965.479999999996,-21446.46,-9507.24,-5975.1449999999995,5845.1849999999995
-10392.029999999999,-39729.78,-2601.18,-41035.68,-21549.6,-9592.47,-5943.0599999999995,5849.01
-10409.715,-39715.064999999995,-2602.71,-41076.494999999995,-21604.454999999998,-9597.69,-5914.665,5832.179999999999
-10407.195,-39692.295,-2549.295,-40995.494999999995,-21469.41,-9453.645,-5941.349999999999,5818.365
-10401.255,-39665.07,-2525.535,-40971.42,-21434.895,-9442.755,-5980.365,5808.51
-10387.619999999999,-39640.725,-2533.995,-40995.99,-21477.015,-9495.63,-5973.525,5818.7699999999995
-10377.99,-39603.555,-2511.81,-40989.645,-21507.57,-9536.265,-5954.58,5832.719999999999
-10365.66,-39633.705,-2496.645,-40980.015,-21521.43,-9553.68,-5945.085,5848.38
-10387.619999999999,-39651.975,-2492.1,-40955.895,-21461.895,-9485.775,-5942.16,5825.835
-10431.81,-39662.595,-2503.755,-40959.314999999995,-21435.39,-9435.195,-5947.2,5791.635
-10432.619999999999,-39635.325,-2511.36,-40984.784999999996,-21466.17,-9467.64,-5972.175,5777.775
-10429.244999999999,-39621.42,-2513.745,-41000.85,-21491.91,-9506.88,-5976.179999999999,5783.76
-10456.605,-39691.845,-2529.6749999999997,-40995.405,-21475.17,-9480.96,-5961.6449999999995,5789.25
-10478.205,-39733.29,-2538.72,-41006.159999999996,-21483.945,-9483.525,-5943.15,5800.5
-10492.244999999999,-39712.095,-2524.23,-40984.83,-21461.67,-9474.074999999999,-5946.03,5796.63
-10431.675,-39687.795,-2502.18,-40963.814999999995,-21440.43,-9458.55,-5956.605,5810.94
-10368.494999999999,-39611.97,-2474.415,-40971.24,-21456.18,-9477.99,-5958.09,5834.295
-10389.69,-39607.784999999996,-2486.97,-40995.0,-21481.605,-9503.279999999999,-5952.24,5836.23
-10407.869999999999,-39694.86,-2501.0099999999998,-40992.03,-21473.1,-9496.664999999999,-5954.849999999999,5834.385
-10379.115,-39651.705,-2465.415,-40979.744999999995,-21471.12,-9496.89,-5975.505,5844.33
-10379.88,-39643.064999999995,-2450.745,-40986.72,-21485.61,-9510.119999999999,-5994.63,5838.165
-10349.82,-39591.63,-2419.74,-40984.155,-21492.315,-9522.359999999999,-5990.94,5853.6449999999995
-10358.1,-39575.159999999996,-2419.4249999999997,-41004.765,-21508.38,-9535.5,-5957.28,5849.1449999999995
-10407.914999999999,-39573.09,-2408.13,-40986.765,-21474.45,-9499.455,-5937.03,5815.71
-10431.945,-39630.869999999995,-2447.0099999999998,-40988.115,-21454.965,-9471.06,-5938.92,5810.76
-10445.445,-39716.64,-2483.37,-41001.705,-21459.015,-9471.33,-5933.474999999999,5825.205
-10442.88,-39698.145,-2461.9049999999997,-41004.54,-21476.925,-9493.065,-5939.73,5836.724999999999
-10427.355,-39704.625,-2444.4,-41002.875,-21489.57,-9512.145,-5954.085,5833.17
-10390.275,-39677.22,-2412.4049999999997,-40990.14,-21487.77,-9515.16,-5962.32,5841.36
-10357.109999999999,-39608.595,-2395.17,-40993.29,-21492.18,-9520.92,-5970.33,5850.2699999999995
-10331.369999999999,-39541.77,-2379.87,-40991.895,-21500.19,-9535.23,-5992.83,5839.245
-10319.58,-39490.515,-2367.72,-40998.915,-21504.69,-9538.02,-5989.905,5842.71
-10377.72,-39488.22,-2363.85,-41000.67,-21496.05,-9514.8,-5985.495,5823.224999999999
