ch_0,ch_1,ch_2,ch_3,ch_4,ch_5,ch_6,ch_7
8876.97,802.305,10355.984999999999,-4160.025,-119081.745,-19043.19,14889.42,-27810.045
8892.404999999999,814.365,10367.055,-4147.38,-119062.62,-19031.625,14903.775,-27792.09
8901.0,816.66,10362.69,-4163.94,-119100.555,-19075.14,14924.205,-27775.035
8906.355,824.13,10364.175,-4182.03,-119148.56999999999,-19137.329999999998,14932.17,-27765.27
8899.56,817.6949999999999,10347.84,-4216.68,-119204.14499999999,-19209.465,14932.845,-27766.44
8902.35,821.61,10347.39,-4229.955,-119223.045,-19242.989999999998,14940.63,-27759.42
8908.875,829.8449999999999,10352.97,-4235.4,-119234.47499999999,-19255.184999999998,14941.17,-27753.164999999997
8897.535,823.05,10346.175,-4234.905,-119227.455,-19252.215,14934.42,-27761.219999999998
8886.555,821.295,10355.4,-4199.49,-119165.44499999999,-19213.02,14917.949999999999,-27773.37
8880.57,825.12,10367.369999999999,-4169.79,-119117.565,-19174.725,14910.119999999999,-27782.1
8872.199999999999,824.85,10374.435,-4153.815,-119091.42,-19135.665,14909.49,-27787.59
8865.404999999999,823.005,10373.895,-4159.53,-119101.815,-19129.005,14911.244999999999,-27788.76
8853.75,817.785,10369.305,-4168.62,-119114.415,-19125.18,14917.275,-27792.0
8842.994999999999,810.495,10361.565,-4178.925,-119133.495,-19133.864999999998,14926.994999999999,-27792.27
8844.66,816.0749999999999,10361.609999999999,-4188.555,-119164.5,-19162.079999999998,14924.205,-27790.379999999997
8852.76,825.2099999999999,10359.494999999999,-4202.91,-119210.08499999999,-19227.915,14920.92,-27783.27
8849.16,822.51,10352.385,-4213.125,-119226.59999999999,-19312.11,14926.41,-27780.66
8848.44,820.35,10342.08,-4231.3949999999995,-119233.62,-19359.63,14929.785,-27777.914999999997
8849.295,823.3199999999999,10341.27,-4240.44,-119231.45999999999,-19341.045,14929.335,-27776.295
8837.055,813.3299999999999,10333.484999999999,-4250.88,-119244.15,-19276.29,14936.49,-27778.905
8823.015,812.385,10339.02,-4240.485,-119238.03,-19184.489999999998,14935.68,-27788.445
8808.255,809.28,10343.565,-4222.9349999999995,-119249.055,-19135.89,14912.73,-27805.635
8798.58,804.78,10348.605,-4200.974999999999,-119233.62,-19103.535,14911.92,-27810.989999999998
8789.175,807.525,10356.21,-4181.13,-119158.83,-19088.19,14905.529999999999,-27818.504999999997
8788.545,816.7049999999999,10363.5,-4170.15,-119103.61499999999,-19094.895,14901.66,-27818.82
8791.605,821.745,10358.595,-4192.785,-119145.465,-19178.64,14906.564999999999,-27810.225
8802.72,832.005,10351.17,-4237.695,-119220.61499999999,-19317.555,14917.14,-27793.485
8801.235,835.8299999999999,10343.565,-4276.17,-119287.17,-19412.505,14910.074999999999,-27795.239999999998
8797.41,834.03,10333.08,-4305.33,-119328.48,-19422.315,14919.119999999999,-27794.969999999998
8805.06,834.795,10332.18,-4302.045,-119319.39,-19369.665,14939.01,-27781.829999999998
8797.005,832.005,10342.8,-4263.12,-119260.98,-19249.965,14938.785,-27787.004999999997
8753.13,813.87,10358.234999999999,-4193.055,-119140.965,-19057.32,14906.519999999999,-27831.195
8727.255,810.18,10375.875,-4146.165,-119058.56999999999,-18955.575,14886.63,-27857.43
8728.335,817.875,10380.15,-4149.63,-119065.36499999999,-18999.495,14893.019999999999,-27852.48
8739.135,822.915,10375.065,-4166.01,-119090.51999999999,-19044.18,14906.43,-27839.114999999998
8740.215,827.9549999999999,10377.81,-4173.48,-119103.795,-19065.69,14903.82,-27837.045
8730.449999999999,825.5699999999999,10374.39,-4176.18,-119104.29,-19064.295,14900.849999999999,-27845.37
8724.555,814.005,10355.67,-4191.075,-119123.37,-19078.739999999998,14915.25,-27843.254999999997
8721.18,811.53,10346.355,-4212.764999999999,-119168.14499999999,-19136.88,14926.859999999999,-27840.195
8715.285,812.295,10339.02,-4244.355,-119222.775,-19229.13,14929.154999999999,-27842.445
8720.055,820.8449999999999,10342.529999999999,-4256.055,-119240.595,-19268.37,14939.369999999999,-27835.02
8720.1,820.62,10341.855,-4252.005,-119230.29,-19251.09,14939.01,-27834.12
8726.58,837.045,10368.81,-4211.19,-119176.73999999999,-19186.829999999998,14932.035,-27832.094999999998
8715.69,838.0799999999999,10376.369999999999,-4194.54,-119150.50499999999,-19142.325,14916.24,-27847.215
8705.699999999999,834.48,10367.91,-4219.695,-119188.62,-19169.055,14909.67,-27855.315
8705.97,840.3299999999999,10372.815,-4228.29,-119214.54,-19217.43,14915.519999999999,-27849.465
8706.914999999999,840.285,10374.21,-4222.62,-119206.665,-19235.295,14920.064999999999,-27846.719999999998
8699.535,839.61,10383.705,-4193.955,-119155.275,-19191.465,14911.695,-27854.504999999997
8683.695,835.0649999999999,10389.645,-4171.095,-119113.73999999999,-19136.204999999998,14905.394999999999,-27867.6
8675.414999999999,831.105,10388.205,-4173.84,-119117.11499999999,-19107.495,14899.32,-27875.25
8678.565,837.225,10391.22,-4182.84,-119141.28,-19099.71,14911.92,-27869.76
8676.63,835.515,10383.57,-4203.764999999999,-119179.215,-19136.204999999998,14919.255,-27866.07
8680.545,837.045,10372.859999999999,-4229.37,-119213.90999999999,-19200.645,14927.535,-27856.575
8678.07,840.555,10375.199999999999,-4238.91,-119233.44,-19247.895,14925.33,-27859.14
8668.305,835.92,10371.734999999999,-4245.705,-119246.89499999999,-19275.885,14923.439999999999,-27866.969999999998
8668.845,837.9449999999999,10371.195,-4251.0599999999995,-119264.4,-19300.68,14933.519999999999,-27860.445
8659.98,833.4449999999999,10373.535,-4235.355,-119234.47499999999,-19283.489999999998,14922.585,-27870.344999999998
8642.115,825.255,10374.435,-4219.695,-119178.18,-19238.265,14900.984999999999,-27893.204999999998
8637.074999999999,822.15,10367.145,-4232.385,-119174.985,-19229.579999999998,14895.359999999999,-27896.805
8636.895,823.77,10369.529999999999,-4236.12,-119183.94,-19169.55,14899.14,-27892.17
8633.88,827.01,10381.859999999999,-4211.415,-119187.405,-19110.735,14912.279999999999,-27890.82
8636.265,839.475,10398.51,-4194.72,-119211.56999999999,-19115.415,14907.734999999999,-27893.789999999997
8623.17,847.26,10421.46,-4159.44,-119163.33,-19100.385,14893.335,-27912.149999999998
8610.074999999999,843.03,10422.9,-4149.54,-119101.36499999999,-19078.559999999998,14895.945,-27921.195
8610.75,838.7099999999999,10408.41,-4181.849999999999,-119157.84,-19117.44,14905.755,-27914.129999999997
8602.56,827.01,10388.295,-4217.49,-119213.14499999999,-19167.165,14898.869999999999,-27918.27
8604.81,832.5,10392.164999999999,-4215.105,-119194.42499999999,-19173.915,14903.279999999999,-27912.645
8609.805,842.13,10395.045,-4226.22,-119221.47,-19250.55,14906.519999999999,-27906.48
8606.835,843.12,10389.96,-4244.8949999999995,-119244.59999999999,-19299.825,14901.795,-27908.64
8606.925,848.43,10395.63,-4243.815,-119242.17,-19297.98,14902.695,-27910.079999999998
8601.75,853.1999999999999,10408.365,-4225.32,-119220.56999999999,-19257.84,14901.255,-27915.704999999998
8587.35,838.98,10395.675,-4232.835,-119229.61499999999,-19245.105,14906.295,-27922.905
8577.585,828.225,10381.635,-4257.54,-119290.455,-19268.415,14912.775,-27925.469999999998
8570.43,832.14,10388.97,-4258.755,-119333.11499999999,-19253.204999999998,14908.59,-27930.69
8563.635,838.0799999999999,10399.185,-4249.17,-119316.42,-19218.375,14905.98,-27935.91
8559.81,828.855,10386.09,-4255.155,-119289.78,-19183.14,14909.67,-27933.39
8544.735,821.385,10384.38,-4233.78,-119212.33499999999,-19110.915,14895.18,-27945.989999999998
8527.994999999999,827.775,10409.085,-4184.91,-119114.775,-19026.36,14871.06,-27968.129999999997
8520.21,830.16,10417.859999999999,-4160.655,-119078.73,-18994.184999999998,14866.56,-27976.905
8524.8,829.35,10409.895,-4180.815,-119114.50499999999,-19040.94,14887.845,-27963.675
8533.035,840.06,10411.65,-4201.74,-119163.78,-19111.094999999998,14897.609999999999,-27951.344999999998
8529.57,842.355,10412.055,-4214.025,-119188.98,-19142.594999999998,14888.744999999999,-27956.475
8530.244999999999,846.135,10415.609999999999,-4211.55,-119195.595,-19147.77,14888.025,-27953.774999999998
8524.485,843.7049999999999,10413.585,-4208.22,-119184.705,-19137.015,14886.539999999999,-27954.675
8515.574999999999,844.3349999999999,10419.93,-4198.139999999999,-119171.385,-19130.67,14882.355,-27961.425
8509.05,843.2099999999999,10416.33,-4210.65,-119187.62999999999,-19151.415,14884.38,-27962.954999999998
8509.815,845.055,10410.21,-4233.0599999999995,-119225.06999999999,-19198.71,14892.21,-27955.71
8513.145,856.125,10427.085,-4214.43,-119209.36499999999,-19177.29,14886.81,-27956.34
8506.935,860.895,10440.99,-4181.22,-119162.205,-19105.875,14880.42,-27965.789999999997
8499.015,859.005,10442.07,-4175.37,-119159.055,-19089.315,14881.635,-27971.864999999998
8491.23,856.935,10438.83,-4185.405,-119174.08499999999,-19097.91,14884.695,-27975.059999999998
8481.24,851.13,10431.18,-4196.43,-119184.435,-19115.235,14879.474999999999,-27982.215
8487.404999999999,855.81,10433.205,-4196.655,-119184.75,-19120.77,14888.609999999999,-27972.629999999997
8478.27,846.9,10427.67,-4194.945,-119174.805,-19106.28,14884.38,-27977.67
8473.14,851.805,10440.045,-4176.63,-119151.315,-19087.92,14880.105,-27981.315
8471.43,856.8,10441.17,-4192.92,-119179.665,-19118.655,14881.185,-27979.92
8471.88,855.5849999999999,10426.41,-4233.465,-119236.23,-19179.495,14886.945,-27973.71
8479.035,858.6899999999999,10416.645,-4269.014999999999,-119292.48,-19245.645,14901.885,-27961.2
8479.664999999999,862.425,10412.685,-4291.785,-119326.86,-19285.155,14903.685,-27956.204999999998
8470.755,858.24,10412.955,-4281.255,-119310.12,-19271.204999999998,14897.699999999999,-27963.045
8460.63,850.005,10414.44,-4255.605,-119269.215,-19230.614999999998,14895.72,-27969.524999999998
8447.805,852.795,10433.025,-4217.264999999999,-119216.06999999999,-19175.579999999998,14869.215,-27991.215
8433.135,850.3199999999999,10437.345,-4203.18,-119181.28499999999,-19129.32,14856.21,-28009.53
8424.27,846.5849999999999,10434.96,-4205.88,-119187.94499999999,-19132.739999999998,14862.644999999999,-28010.655
8418.6,843.165,10432.529999999999,-4209.21,-119191.455,-19137.555,14872.545,-28008.45
8418.51,840.555,10421.414999999999,-4233.465,-119216.655,-19180.17,14877.81,-28004.309999999998
8429.895,853.245,10426.005,-4249.62,-119246.805,-19203.434999999998,14887.305,-27991.53
8431.244999999999,858.51,10425.734999999999,-4264.605,-119272.40999999999,-19205.73,14886.63,-27989.19
8430.029999999999,856.755,10424.835,-4262.085,-119271.42,-19191.735,14879.16,-27988.92
8418.195,850.5899999999999,10429.965,-4239.09,-119244.015,-19181.61,14873.805,-27999.629999999997
8406.135,848.2049999999999,10439.01,-4215.195,-119226.06,-19170.585,14870.519999999999,-28009.98
8398.574999999999,846.045,10431.539999999999,-4235.13,-119248.83,-19208.565,14872.365,-28012.094999999998
8400.6,850.185,10422.359999999999,-4271.849999999999,-119296.34999999999,-19255.184999999998,14875.92,-28008.18
8398.89,848.475,10416.96,-4282.47,-119311.69499999999,-19266.885,14872.859999999999,-28010.385
8388.27,844.8299999999999,10426.725,-4245.345,-119254.275,-19180.844999999998,14867.955,-28021.23
8362.215,836.505,10441.125,-4190.49,-119166.885,-19061.505,14847.93,-28050.21
8357.985,836.37,10440.0,-4195.889999999999,-119173.31999999999,-19071.36,14855.22,-28049.445
8363.744999999999,840.51,10435.859999999999,-4223.474999999999,-119218.86,-19132.965,14862.105,-28039.815
8364.42,841.86,10429.154999999999,-4247.19,-119254.905,-19175.715,14864.22,-28037.34
8367.795,845.9549999999999,10426.77,-4260.014999999999,-119276.19,-19211.355,14873.984999999999,-28028.61
8373.645,853.245,10430.955,-4265.955,-119287.53,-19231.515,14882.76,-28019.114999999998
8369.505,854.5949999999999,10433.97,-4264.245,-119291.89499999999,-19255.364999999998,14871.285,-28024.649999999998
8355.105,848.9699999999999,10432.08,-4252.095,-119270.11499999999,-19244.114999999998,14860.08,-28036.844999999998
8348.175,846.225,10431.135,-4250.34,-119263.23,-19217.43,14861.88,-28039.454999999998
8337.42,842.67,10431.404999999999,-4250.115,-119259.45,-19181.61,14853.105,-28048.184999999998
8327.744999999999,838.53,10428.885,-4250.835,-119252.655,-19149.795,14851.619999999999,-28053.0
8325.27,837.405,10428.029999999999,-4253.805,-119258.055,-19151.864999999998,14857.425,-28050.39
8326.755,845.685,10439.145,-4241.565,-119245.76999999999,-19155.239999999998,14862.06,-28047.96
8322.705,843.39,10438.109999999999,-4236.885,-119233.305,-19151.55,14864.535,-28049.219999999998
8320.185,841.3199999999999,10437.3,-4232.79,-119218.905,-19135.17,14862.824999999999,-28049.715
8319.555,845.8199999999999,10443.734999999999,-4228.83,-119216.43,-19139.13,14859.135,-28051.965
8310.06,838.62,10433.52,-4249.485,-119249.055,-19187.415,14854.68,-28057.454999999998
8307.494999999999,838.485,10429.65,-4263.93,-119268.855,-19203.66,14856.525,-28055.16
8305.965,840.9599999999999,10430.369999999999,-4266.72,-119273.84999999999,-19201.094999999998,14860.08,-28051.739999999998
8305.92,848.295,10442.43,-4246.38,-119252.79,-19188.225,14861.205,-28049.489999999998
8302.815,848.5649999999999,10442.43,-4246.065,-119252.51999999999,-19210.05,14862.195,-28050.84
8302.904999999999,849.3299999999999,10436.22,-4268.34,-119280.87,-19259.594999999998,14869.17,-28046.295
8311.949999999999,857.025,10434.69,-4289.04,-119322.405,-19303.29,14872.769999999999,-28035.045
8295.029999999999,843.255,10425.42,-4288.32,-119313.405,-19271.79,14866.515,-28047.105
8269.38,826.11,10422.585,-4262.94,-119265.61499999999,-19193.13,14859.99,-28067.445
8262.36,828.7199999999999,10430.369999999999,-4255.65,-119245.00499999999,-19158.614999999998,14861.205,-28071.629999999997
8258.67,832.05,10428.57,-4270.68,-119266.73999999999,-19194.344999999998,14855.31,-28076.355
8266.455,839.655,10431.585,-4273.83,-119282.04,-19222.245,14858.955,-28068.704999999998
8260.11,839.25,10437.75,-4257.2699999999995,-119274.345,-19205.235,14847.66,-28075.68
8256.195,844.38,10453.904999999999,-4227.4349999999995,-119237.22,-19150.38,14840.505,-28081.934999999998
8250.705,844.605,10452.779999999999,-4235.94,-119236.815,-19134.765,14839.199999999999,-28086.48
8246.385,842.985,10446.66,-4249.349999999999,-119249.19,-19164.105,14840.595,-28087.695
8252.595,850.41,10451.43,-4248.9,-119252.655,-19181.969999999998,14845.949999999999,-28078.695
8246.744999999999,843.255,10447.56,-4247.55,-119249.055,-19181.43,14839.425,-28084.184999999998
8234.235,832.23,10442.609999999999,-4235.985,-119221.73999999999,-19142.82,14835.869999999999,-28094.039999999997
