ch_0,ch_1,ch_2,ch_3,ch_4,ch_5,ch_6,ch_7
4424.04,-33680.295,-22573.53,-14279.175,-8301.24,-64029.195,-11206.484999999999,9113.94
4427.91,-33672.78,-22572.27,-14285.295,-8319.015,-64065.149999999994,-11190.195,9117.494999999999
4417.335,-33684.119999999995,-22572.09,-14272.83,-8296.92,-64055.34,-11197.664999999999,9109.035
4402.3949999999995,-33700.095,-22571.64,-14254.199999999999,-8270.145,-64055.61,-11209.904999999999,9097.244999999999
4401.09,-33700.815,-22567.5,-14246.595,-8264.115,-64042.064999999995,-11207.52,9097.83
4405.68,-33697.44,-22560.84,-14234.175,-8255.34,-63991.845,-11203.695,9101.07
4430.115,-33675.299999999996,-22549.5,-14226.57,-8259.795,-64008.854999999996,-11185.38,9126.225
4447.304999999999,-33661.08,-22560.84,-14253.21,-8304.029999999999,-64107.045,-11187.855,9141.885
4448.34,-33661.395,-22573.665,-14284.35,-8350.92,-64196.235,-11197.71,9140.13
4429.71,-33672.69,-22572.945,-14283.09,-8351.145,-64149.255,-11196.675,9122.984999999999
4406.715,-33695.01,-22570.829999999998,-14258.789999999999,-8299.529999999999,-64006.064999999995,-11192.22,9104.895
4381.38,-33718.635,-22580.01,-14251.05,-8248.14,-63921.284999999996,-11204.955,9078.75
4383.2699999999995,-33709.409999999996,-22552.469999999998,-14209.83,-8212.545,-63927.405,-11210.355,9076.275
4419.405,-33680.385,-22547.204999999998,-14205.465,-8230.32,-64002.24,-11193.119999999999,9110.88
4437.72,-33675.165,-22575.87,-14243.67,-8286.93,-64099.305,-11192.715,9130.455
4456.035,-33657.525,-22572.495,-14272.83,-8340.164999999999,-64158.345,-11191.185,9147.6
4441.23,-33664.005,-22563.45,-14283.0,-8348.039999999999,-64114.38,-11193.255,9133.335
4399.245,-33695.549999999996,-22559.309999999998,-14261.445,-8293.904999999999,-64027.89,-11206.8,9095.715
4368.24,-33716.205,-22535.37,-14222.744999999999,-8228.925,-63945.405,-11219.715,9067.455
4376.43,-33706.215,-22522.14,-14195.115,-8212.41,-63948.869999999995,-11219.445,9076.994999999999
4396.86,-33687.945,-22529.52,-14218.244999999999,-8249.895,-64006.064999999995,-11204.73,9098.234999999999
4404.105,-33680.88,-22535.82,-14230.89,-8265.6,-64052.954999999994,-11203.244999999999,9103.859999999999
4410.18,-33677.549999999996,-22538.79,-14239.08,-8279.324999999999,-64089.314999999995,-11201.939999999999,9108.18
4421.88,-33673.229999999996,-22550.175,-14256.539999999999,-8290.98,-64097.415,-11190.914999999999,9118.305
4428.36,-33676.424999999996,-22564.844999999998,-14274.404999999999,-8303.895,-64112.31,-11197.215,9122.805
4424.625,-33678.585,-22558.454999999998,-14272.154999999999,-8306.46,-64108.305,-11217.42,9119.744999999999
4433.264999999999,-33667.2,-22532.67,-14248.574999999999,-8282.565,-64079.505,-11210.22,9134.82
4418.235,-33674.265,-22531.094999999998,-14241.555,-8263.529999999999,-64078.38,-11210.805,9121.095
4434.75,-33653.79,-22525.965,-14245.515,-8272.35,-64144.439999999995,-11200.904999999999,9135.539999999999
4432.365,-33657.435,-22539.015,-14286.914999999999,-8330.355,-64189.305,-11200.23,9133.83
4414.905,-33668.415,-22525.739999999998,-14270.894999999999,-8321.49,-64119.24,-11202.345,9119.654999999999
4379.445,-33696.854999999996,-22525.245,-14241.914999999999,-8268.029999999999,-63997.064999999995,-11218.275,9086.715
4362.66,-33711.885,-22538.52,-14229.045,-8219.52,-63920.34,-11229.525,9075.869999999999
4379.76,-33701.085,-22552.11,-14234.22,-8212.68,-63930.689999999995,-11216.34,9096.885
4412.655,-33675.525,-22564.665,-14260.725,-8250.164999999999,-64027.89,-11196.539999999999,9130.14
4417.65,-33674.31,-22575.555,-14286.644999999999,-8292.914999999999,-64086.795,-11203.83,9131.76
4424.445,-33660.63,-22540.004999999997,-14265.99,-8284.77,-64084.59,-11194.875,9138.195
4411.845,-33664.32,-22515.48,-14234.984999999999,-8248.14,-64081.665,-11202.39,9124.335
4410.135,-33672.015,-22521.195,-14228.46,-8244.135,-64121.715,-11209.095,9127.35
4411.71,-33669.81,-22521.285,-14230.98,-8254.125,-64114.424999999996,-11211.074999999999,9133.56
4413.599999999999,-33668.82,-22529.52,-14241.914999999999,-8251.02,-64047.195,-11197.664999999999,9138.779999999999
4408.965,-33674.895,-22538.295,-14252.894999999999,-8249.535,-63995.445,-11195.595,9136.035
4395.599999999999,-33679.215,-22523.85,-14245.289999999999,-8235.9,-63977.715,-11199.6,9122.85
4381.92,-33686.82,-22520.52,-14230.215,-8216.279999999999,-63988.155,-11212.109999999999,9107.73
4396.23,-33675.345,-22511.879999999997,-14208.3,-8191.53,-63988.335,-11205.539999999999,9120.914999999999
4415.625,-33661.395,-22521.69,-14228.324999999999,-8220.869999999999,-64047.24,-11194.47,9140.805
4437.855,-33647.13,-22541.445,-14260.32,-8252.82,-64141.2,-11191.949999999999,9162.315
4437.36,-33651.45,-22550.805,-14287.005,-8296.11,-64225.845,-11206.98,9161.279999999999
4424.8949999999995,-33658.424999999996,-22517.774999999998,-14263.515,-8294.49,-64187.055,-11214.72,9147.6
4400.28,-33675.93,-22507.379999999997,-14240.025,-8252.414999999999,-64050.435,-11209.275,9124.47
4384.125,-33682.994999999995,-22515.614999999998,-14231.789999999999,-8210.744999999999,-63950.805,-11209.635,9109.395
4395.78,-33676.02,-22519.215,-14236.74,-8200.89,-63950.13,-11214.09,9124.289999999999
4400.055,-33667.65,-22492.98,-14210.64,-8196.029999999999,-63973.17,-11223.09,9129.555
4420.485,-33650.505,-22474.575,-14193.314999999999,-8199.81,-63996.57,-11212.875,9151.965
4424.355,-33652.619999999995,-22486.59,-14215.365,-8241.615,-64048.5,-11215.935,9154.935
4420.485,-33655.725,-22500.045,-14231.564999999999,-8257.904999999999,-64059.93,-11215.89,9149.58
4415.94,-33654.104999999996,-22510.079999999998,-14243.625,-8233.244999999999,-64036.935,-11206.755,9148.455
4413.51,-33652.71,-22504.364999999998,-14244.029999999999,-8244.675,-64080.945,-11216.97,9148.095
4416.4349999999995,-33652.619999999995,-22509.045,-14259.105,-8270.955,-64109.475,-11227.095,9154.755
4415.3099999999995,-33658.065,-22526.864999999998,-14281.515,-8280.27,-64108.619999999995,-11218.725,9162.135
4403.97,-33661.17,-22531.41,-14275.529999999999,-8268.795,-64106.685,-11215.71,9153.27
4391.639999999999,-33666.075,-22524.75,-14251.904999999999,-8240.895,-64058.399999999994,-11216.609999999999,9143.01
4392.045,-33668.82,-22518.18,-14234.265,-8194.5,-63994.994999999995,-11206.395,9151.605
4393.3949999999995,-33665.445,-22512.329999999998,-14236.335,-8194.68,-64003.5,-11208.195,9155.25
4393.08,-33665.174999999996,-22515.704999999998,-14249.475,-8211.6,-64030.994999999995,-11215.529999999999,9155.385
4400.19,-33661.665,-22509.855,-14246.279999999999,-8211.869999999999,-64024.965,-11205.945,9165.51
4405.815,-33654.15,-22497.48,-14236.605,-8215.875,-64038.689999999995,-11198.43,9173.52
4404.78,-33654.195,-22504.23,-14243.22,-8230.77,-64080.854999999996,-11198.025,9173.34
4414.005,-33649.515,-22522.5,-14268.015,-8248.904999999999,-64123.335,-11201.13,9182.88
4422.599999999999,-33647.715,-22537.44,-14283.404999999999,-8253.36,-64138.545,-11205.539999999999,9194.22
4413.555,-33652.755,-22523.355,-14280.39,-8250.39,-64108.845,-11211.57,9187.244999999999
4389.66,-33671.295,-22517.64,-14270.939999999999,-8231.895,-64070.189999999995,-11212.154999999999,9168.119999999999
4372.155,-33684.84,-22529.25,-14274.72,-8203.365,-64029.104999999996,-11225.205,9149.67
4381.245,-33668.549999999996,-22510.89,-14271.885,-8187.615,-64012.454999999994,-11218.41,9154.26
4377.96,-33666.885,-22495.77,-14251.23,-8178.84,-64014.165,-11215.35,9150.435
4390.605,-33654.24,-22493.34,-14251.365,-8190.719999999999,-64073.97,-11201.13,9166.994999999999
4393.3949999999995,-33655.545,-22511.34,-14275.574999999999,-8205.795,-64113.255,-11195.1,9176.94
4379.445,-33669.945,-22526.415,-14292.99,-8216.91,-64088.46,-11207.16,9166.14
4389.93,-33660.72,-22508.37,-14280.795,-8202.869999999999,-64033.74,-11198.07,9178.154999999999
4383.2699999999995,-33664.994999999995,-22497.704999999998,-14271.975,-8179.0199999999995,-63996.75,-11205.765,9169.965
4387.995,-33663.915,-22502.835,-14290.335,-8199.539999999999,-64029.104999999996,-11209.5,9172.035
4388.04,-33661.979999999996,-22503.465,-14302.484999999999,-8222.039999999999,-64062.405,-11209.05,9174.195
4379.175,-33662.385,-22501.89,-14292.72,-8208.63,-64041.84,-11211.119999999999,9166.005
4378.005,-33662.97,-22516.29,-14299.65,-8217.315,-64081.755,-11199.689999999999,9169.109999999999
4385.385,-33657.299999999996,-22521.87,-14310.494999999999,-8235.135,-64122.57,-11199.015,9178.199999999999
4394.88,-33647.534999999996,-22506.795,-14306.625,-8227.619999999999,-64107.99,-11196.404999999999,9189.135
4375.08,-33661.08,-22493.114999999998,-14272.965,-8170.245,-64018.89,-11204.414999999999,9171.045
4369.095,-33669.225,-22494.69,-14249.699999999999,-8144.549999999999,-63984.015,-11214.225,9165.914999999999
4402.71,-33643.305,-22505.579999999998,-14277.869999999999,-8191.62,-64079.865,-11202.345,9197.369999999999
4411.305,-33639.57,-22527.45,-14317.65,-8220.015,-64111.454999999994,-11196.63,9207.404999999999
4396.68,-33647.94,-22512.465,-14312.07,-8210.43,-64068.299999999996,-11194.83,9193.859999999999
4372.5599999999995,-33658.965,-22483.17,-14262.48,-8169.57,-64037.34,-11216.925,9166.185
4393.485,-33641.865,-22460.175,-14225.805,-8149.724999999999,-64065.645,-11206.98,9190.98
4406.13,-33638.445,-22479.075,-14255.775,-8190.315,-64133.189999999995,-11198.564999999999,9209.16
4398.93,-33642.315,-22498.155,-14283.359999999999,-8197.154999999999,-64092.78,-11181.96,9204.48
4368.825,-33664.14,-22510.53,-14278.859999999999,-8150.8949999999995,-63975.015,-11182.365,9174.645
4372.155,-33658.515,-22487.129999999997,-14244.119999999999,-8117.009999999999,-63957.015,-11191.994999999999,9178.695
4364.6849999999995,-33666.84,-22487.175,-14246.505,-8126.1449999999995,-63966.24,-11207.295,9172.035
4384.26,-33647.985,-22481.19,-14253.705,-8149.23,-64044.72,-11198.43,9193.23
4401.855,-33632.235,-22486.995,-14273.82,-8181.719999999999,-64121.22,-11181.105,9213.435
4412.565,-33627.915,-22488.524999999998,-14282.01,-8194.635,-64143.405,-11177.775,9228.15
4391.505,-33646.229999999996,-22488.614999999998,-14290.56,-8204.039999999999,-64092.555,-11195.82,9207.27
4375.889999999999,-33650.505,-22469.489999999998,-14266.08,-8171.639999999999,-64007.82,-11193.255,9192.734999999999
4358.925,-33662.43,-22469.129999999997,-14251.59,-8122.23,-63937.665,-11199.6,9179.55
4349.385,-33674.85,-22485.059999999998,-14252.49,-8093.429999999999,-63928.575,-11200.904999999999,9175.904999999999
4373.325,-33648.93,-22470.75,-14248.439999999999,-8114.174999999999,-63982.395,-11179.395,9201.734999999999
4392.18,-33634.305,-22474.125,-14272.064999999999,-8156.025,-64049.805,-11169.135,9223.965
4380.255,-33647.67,-22490.055,-14298.074999999999,-8169.48,-64057.86,-11178.81,9217.529999999999
4376.835,-33651.135,-22489.965,-14287.365,-8162.009999999999,-64054.619999999995,-11177.324999999999,9218.475
4371.615,-33649.515,-22475.43,-14266.394999999999,-8146.889999999999,-64045.979999999996,-11170.98,9215.82
4371.525,-33643.665,-22478.085,-14277.96,-8153.505,-64089.134999999995,-11177.91,9215.55
4388.175,-33626.52,-22483.665,-14298.975,-8191.53,-64158.39,-11176.199999999999,9231.75
4389.75,-33628.635,-22495.094999999998,-14329.439999999999,-8227.755,-64170.494999999995,-11187.494999999999,9235.619999999999
4351.365,-33652.619999999995,-22477.545,-14290.515,-8167.139999999999,-64054.305,-11209.23,9195.93
4323.78,-33676.74,-22464.0,-14228.055,-8081.054999999999,-63932.895,-11203.785,9171.27
4341.375,-33659.82,-22449.78,-14217.615,-8088.389999999999,-63969.795,-11189.744999999999,9189.81
4358.25,-33646.229999999996,-22457.835,-14244.57,-8122.41,-64029.689999999995,-11180.609999999999,9207.27
4361.22,-33646.95,-22475.835,-14274.855,-8146.799999999999,-64060.695,-11184.119999999999,9213.75
4356.945,-33651.54,-22485.645,-14275.305,-8130.465,-64065.284999999996,-11187.18,9211.32
4359.0599999999995,-33651.54,-22493.969999999998,-14274.135,-8127.719999999999,-64087.38,-11188.755,9214.02
4365.585,-33647.174999999996,-22481.954999999998,-14288.265,-8169.795,-64132.649999999994,-11189.07,9222.705
4346.28,-33658.74,-22470.524999999998,-14277.285,-8162.549999999999,-64067.579999999994,-11195.865,9202.185
4323.195,-33678.18,-22476.42,-14270.76,-8134.245,-63992.655,-11205.135,9177.435
4313.88,-33684.57,-22475.25,-14250.195,-8102.384999999999,-63957.735,-11211.074999999999,9166.68
4325.8949999999995,-33669.72,-22469.94,-14249.744999999999,-8106.299999999999,-63980.189999999995,-11195.324999999999,9181.755
4352.49,-33643.89,-22462.559999999998,-14255.189999999999,-8133.795,-64061.549999999996,-11172.42,9212.22
4365.045,-33635.52,-22467.6,-14267.789999999999,-8159.219999999999,-64112.625,-11166.39,9227.744999999999
4363.605,-33646.905,-22488.165,-14283.99,-8178.48,-64144.439999999995,-11173.095,9229.68
4360.635,-33656.22,-22500.045,-14293.394999999999,-8186.625,-64158.39,-11186.279999999999,9229.994999999999
4354.92,-33657.03,-22490.504999999997,-14274.855,-8153.775,-64070.595,-11194.965,9222.795
4339.845,-33667.29,-22484.295,-14261.625,-8133.929999999999,-64020.6,-11198.744999999999,9208.26
4335.165,-33666.119999999995,-22477.23,-14256.539999999999,-8127.8099999999995,-64008.63,-11185.785,9204.48
4348.53,-33652.665,-22467.915,-14245.695,-8114.04,-64012.634999999995,-11172.06,9221.13
4353.525,-33647.22,-22463.73,-14247.18,-8110.17,-64021.814999999995,-11170.98,9226.484999999999
4352.849999999999,-33649.244999999995,-22476.51,-14263.695,-8123.625,-64040.13,-11171.654999999999,9227.88
4337.6849999999995,-33657.93,-22477.995,-14270.894999999999,-8136.315,-64030.454999999994,-11180.115,9209.52
4347.36,-33644.52,-22457.79,-14243.805,-8112.6449999999995,-64007.505,-11167.515,9221.535
4350.78,-33645.825,-22457.114999999998,-14236.064999999999,-8109.134999999999,-64027.17,-11166.84,9229.005
4347.63,-33652.979999999996,-22475.475,-14263.965,-8132.94,-64055.79,-11171.43,9227.43
4348.8,-33650.28,-22478.129999999997,-14280.3,-8156.25,-64082.52,-11169.945,9227.115
4352.625,-33645.015,-22464.945,-14271.345,-8147.205,-64067.49,-11167.425,9230.85
4341.105,-33651.45,-22454.415,-14252.085,-8123.804999999999,-64058.04,-11180.34,9221.31
4345.11,-33640.74,-22430.655,-14220.675,-8105.49,-64052.055,-11173.32,9228.555
4349.07,-33643.17,-22439.114999999998,-14225.58,-8110.125,-64053.99,-11170.17,9233.055
4337.46,-33656.49,-22464.0,-14253.93,-8138.565,-64055.295,-11180.385,9216.315
4350.24,-33649.875,-22477.815,-14260.275,-8137.035,-64053.72,-11175.885,9227.97
4367.07,-33632.64,-22468.23,-14254.74,-8125.83,-64064.835,-11162.295,9245.744999999999
4350.87,-33638.49,-22450.32,-14241.15,-8096.8949999999995,-64058.534999999996,-11173.365,9231.029999999999
4334.22,-33649.244999999995,-22434.12,-14219.369999999999,-8078.67,-64034.64,-11181.914999999999,9218.205
4347.585,-33637.049999999996,-22429.395,-14218.74,-8086.049999999999,-64056.509999999995,-11168.505,9235.395
