ch_0,ch_1,ch_2,ch_3,ch_4,ch_5,ch_6,ch_7
7600.41,42.885,11400.029999999999,-527.355,-130683.51,-15423.93,15733.484999999999,-69077.655
7602.929999999999,46.89,11401.605,-526.3199999999999,-130682.745,-15425.414999999999,15741.72,-69071.13
7601.8949999999995,43.785,11398.005,-530.235,-130686.885,-15430.545,15748.83,-69068.52
7606.665,49.68,11404.755,-523.26,-130680.94499999999,-15427.17,15745.904999999999,-69064.29
7613.594999999999,54.315,11408.445,-520.02,-130681.89,-15429.914999999999,15749.865,-69056.415
7608.0599999999995,48.51,11400.21,-527.535,-130686.795,-15434.055,15746.715,-69058.26
7599.735,41.85,11393.324999999999,-536.175,-130693.23,-15442.83,15741.81,-69062.715
7602.66,47.16,11397.51,-533.0699999999999,-130690.79999999999,-15443.775,15742.08,-69060.645
7603.245,48.059999999999995,11396.789999999999,-531.9449999999999,-130687.56,-15444.494999999999,15739.83,-69061.23
7607.88,51.57,11398.455,-531.495,-130690.44,-15457.59,15742.17,-69056.055
7612.785,55.26,11400.119999999999,-529.785,-130694.89499999999,-15462.675,15749.055,-69050.34
7604.82,47.205,11393.685,-532.4399999999999,-130690.75499999999,-15450.3,15746.039999999999,-69054.84
7607.115,52.335,11401.47,-521.9549999999999,-130675.72499999999,-15432.615,15746.175,-69054.435
7610.13,56.835,11408.085,-513.63,-130664.295,-15423.119999999999,15742.125,-69055.785
7615.035,57.33,11405.52,-518.4449999999999,-130669.605,-15426.269999999999,15743.97,-69056.415
7612.965,54.36,11402.189999999999,-522.495,-130674.59999999999,-15429.644999999999,15740.01,-69064.69499999999
7614.63,55.26,11404.439999999999,-520.29,-130673.655,-15428.43,15743.654999999999,-69066.72
7611.21,52.964999999999996,11402.01,-521.1899999999999,-130671.45,-15425.505,15745.275,-69072.525
7609.41,51.074999999999996,11399.85,-522.81,-130670.415,-15422.4,15750.18,-69076.755
7602.66,41.894999999999996,11390.085,-531.81,-130678.515,-15429.734999999999,15745.68,-69088.14
7608.78,44.46,11391.345,-530.37,-130678.11,-15433.289999999999,15744.869999999999,-69089.715
7616.429999999999,52.875,11398.23,-524.88,-130674.42,-15433.244999999999,15747.3,-69087.51
7612.0199999999995,50.085,11395.35,-529.92,-130679.64,-15438.33,15744.555,-69094.08
7616.34,53.28,11399.984999999999,-523.98,-130672.215,-15431.445,15748.47,-69093.405
7616.835,52.919999999999995,11402.64,-518.9399999999999,-130663.935,-15425.324999999999,15749.01,-69095.11499999999
7610.04,42.48,11391.525,-529.29,-130670.955,-15434.144999999999,15743.88,-69103.305
7608.105,40.86,11388.195,-532.8,-130673.295,-15437.789999999999,15743.519999999999,-69108.525
7606.62,41.76,11393.64,-523.485,-130660.69499999999,-15425.55,15740.144999999999,-69115.5
7610.085,43.92,11395.125,-523.62,-130660.47,-15427.349999999999,15741.72,-69115.05
7615.9349999999995,47.61,11398.455,-519.66,-130656.15,-15424.019999999999,15747.3,-69111.22499999999
7614.36,44.1,11394.09,-523.125,-130659.705,-15427.17,15749.91,-69112.44
7609.634999999999,38.61,11387.564999999999,-530.28,-130665.95999999999,-15433.56,15747.119999999999,-69117.885
7612.0199999999995,39.33,11387.34,-533.25,-130669.065,-15437.699999999999,15750.72,-69112.98
7608.33,35.01,11381.535,-542.835,-130679.595,-15454.394999999999,15749.234999999999,-69111.98999999999
7614.315,42.48,11389.949999999999,-531.855,-130667.53499999999,-15465.33,15756.93,-69102.675
7618.5,46.8,11393.055,-528.39,-130663.125,-15470.505,15752.205,-69102.0
7619.849999999999,46.665,11389.14,-535.905,-130670.01,-15472.755,15748.695,-69106.275
7621.83,46.17,11385.765,-543.915,-130679.37,-15478.515,15754.14,-69106.36499999999
7618.634999999999,41.985,11376.18,-558.99,-130697.86499999999,-15500.07,15747.39,-69112.665
7614.945,40.68,11377.619999999999,-553.905,-130691.92499999999,-15483.779999999999,15745.455,-69121.34999999999
7610.67,40.004999999999995,11392.83,-519.93,-130654.89,-15436.664999999999,15751.035,-69130.08
7613.505,39.33,11393.01,-512.865,-130649.58,-15421.05,15758.279999999999,-69128.86499999999
7609.59,32.894999999999996,11385.945,-514.305,-130639.5,-15400.08,15760.035,-69135.03
7604.099999999999,30.33,11383.47,-517.005,-130636.485,-15394.59,15756.615,-69144.93
7609.95,36.135,11389.814999999999,-512.145,-130630.5,-15397.289999999999,15761.43,-69142.77
7610.13,35.37,11385.18,-518.895,-130635.765,-15409.529999999999,15756.57,-69146.91
7615.53,39.78,11384.955,-523.125,-130646.655,-15428.115,15757.605,-69144.84
7620.929999999999,39.24,11378.475,-537.885,-130672.08,-15457.455,15772.635,-69138.22499999999
7618.005,36.0,11374.154999999999,-543.465,-130674.95999999999,-15470.144999999999,15770.385,-69143.44499999999
7610.445,33.66,11370.869999999999,-542.745,-130672.34999999999,-15476.805,15760.935,-69154.155
7608.6449999999995,31.68,11372.805,-531.09,-130653.18,-15458.265,15761.385,-69157.215
7606.08,30.33,11378.88,-511.695,-130621.455,-15417.18,15758.234999999999,-69163.73999999999
7604.054999999999,32.49,11385.675,-498.28499999999997,-130600.89,-15392.835,15757.605,-69169.23
7609.545,37.485,11386.935,-500.53499999999997,-130601.79,-15396.615,15766.335,-69163.605
7611.75,40.184999999999995,11385.81,-506.205,-130610.745,-15410.385,15769.484999999999,-69162.165
7608.24,35.955,11379.645,-514.035,-130621.31999999999,-15424.785,15763.994999999999,-69168.06
7610.759999999999,38.61,11383.02,-508.54499999999996,-130615.155,-15422.13,15765.93,-69169.36499999999
7614.179999999999,40.769999999999996,11383.47,-507.465,-130613.48999999999,-15420.015,15772.994999999999,-69167.47499999999
7611.615,37.845,11376.494999999999,-515.88,-130623.03,-15429.24,15770.34,-69171.39
7613.91,39.105,11376.135,-518.265,-130627.39499999999,-15441.164999999999,15769.305,-69172.155
7615.755,41.535,11378.16,-516.105,-130625.235,-15450.795,15772.769999999999,-69171.93
7610.94,37.934999999999995,11374.064999999999,-518.76,-130628.025,-15461.279999999999,15772.095,-69176.61
7617.285,45.045,11379.555,-512.37,-130624.56,-15461.82,15773.849999999999,-69174.09
7620.299999999999,45.269999999999996,11378.744999999999,-511.2,-130622.04,-15458.939999999999,15775.38,-69173.01
7620.974999999999,45.629999999999995,11378.34,-511.245,-130619.205,-15443.775,15777.045,-69172.785
7613.82,39.69,11372.085,-515.2049999999999,-130616.595,-15423.21,15773.31,-69179.84999999999
7609.95,35.595,11367.81,-518.04,-130619.295,-15434.73,15769.935,-69185.79
7615.844999999999,38.43,11370.734999999999,-515.0699999999999,-130617.22499999999,-15442.019999999999,15775.38,-69182.505
7618.32,37.08,11366.595,-520.425,-130624.11,-15465.599999999999,15777.855,-69183.81
7617.96,38.79,11367.539999999999,-517.365,-130620.735,-15478.92,15773.805,-69189.56999999999
7623.2699999999995,45.225,11375.189999999999,-506.43,-130608.26999999999,-15464.43,15777.855,-69188.22
7619.804999999999,39.69,11372.445,-504.22499999999997,-130599.405,-15442.605,15780.195,-69194.11499999999
7617.33,33.975,11367.18,-508.995,-130599.67499999999,-15436.71,15781.5,-69198.705
7609.455,27.404999999999998,11361.645,-512.91,-130595.48999999999,-15425.82,15781.05,-69206.48999999999
7612.29,31.904999999999998,11367.63,-505.97999999999996,-130579.29,-15405.119999999999,15790.545,-69204.285
7609.094999999999,27.54,11364.39,-509.805,-130583.745,-15424.515,15790.095,-69208.92
7610.355,26.685,11359.71,-515.0699999999999,-130590.0,-15446.295,15782.894999999999,-69213.23999999999
7626.195,39.464999999999996,11365.154999999999,-513.9449999999999,-130595.94,-15469.875,15781.859999999999,-69204.69
7627.905,40.365,11362.59,-516.465,-130602.87,-15477.435,15784.74,-69203.655
7624.53,37.754999999999995,11360.385,-519.795,-130606.73999999999,-15477.119999999999,15787.574999999999,-69207.12
7621.83,35.235,11354.445,-533.925,-130628.11499999999,-15499.215,15786.359999999999,-69210.98999999999
7624.98,36.18,11350.755,-543.8249999999999,-130640.44499999999,-15508.305,15791.31,-69207.795
7618.545,28.709999999999997,11346.345,-545.265,-130634.86499999999,-15483.51,15789.689999999999,-69214.23
7614.719999999999,28.619999999999997,11355.975,-521.055,-130606.37999999999,-15450.345,15786.855,-69220.98
7618.139999999999,35.775,11374.83,-479.92499999999995,-130551.93,-15400.89,15792.074999999999,-69223.36499999999
7615.575,37.08,11379.465,-464.35499999999996,-130524.885,-15382.98,15785.73,-69233.715
7621.469999999999,41.805,11382.119999999999,-462.78,-130525.83,-15397.064999999999,15779.699999999999,-69236.01
7632.134999999999,51.525,11388.869999999999,-460.66499999999996,-130532.53499999999,-15410.744999999999,15778.17,-69232.77
7638.57,54.945,11387.744999999999,-468.135,-130545.09,-15426.09,15783.48,-69228.27
7638.929999999999,53.055,11382.119999999999,-479.07,-130561.155,-15446.789999999999,15783.074999999999,-69229.53
7643.835,57.644999999999996,11387.564999999999,-475.245,-130562.81999999999,-15457.05,15780.195,-69228.18
7645.275,60.794999999999995,11394.27,-466.60499999999996,-130558.815,-15458.715,15778.349999999999,-69229.08
7643.429999999999,60.93,11394.72,-465.39,-130561.515,-15454.98,15775.244999999999,-69232.41
7639.155,58.184999999999995,11395.08,-459.71999999999997,-130547.06999999999,-15436.619999999999,15773.265,-69240.06
7637.3099999999995,54.315,11389.23,-467.775,-130553.19,-15446.925,15783.345,-69240.51
7633.755,44.955,11372.984999999999,-487.97999999999996,-130575.64499999999,-15468.164999999999,15794.505,-69241.905
7632.36,40.365,11366.189999999999,-497.25,-130587.61499999999,-15480.765,15788.205,-69246.09
7637.085,41.985,11367.045,-497.115,-130593.105,-15487.875,15786.9,-69244.785
7648.65,45.36,11371.185,-491.265,-130585.545,-15483.06,15806.295,-69233.175
7642.755,32.67,11355.705,-505.71,-130596.525,-15489.539999999999,15809.085,-69236.73
7633.349999999999,20.294999999999998,11342.835,-515.115,-130600.08,-15486.66,15812.01,-69243.345
7626.509999999999,15.209999999999999,11341.619999999999,-510.12,-130589.01,-15463.664999999999,15813.045,-69250.545
7616.835,11.295,11343.15,-500.66999999999996,-130569.84,-15439.724999999999,15799.23,-69264.405
7625.429999999999,22.185,11356.695,-483.16499999999996,-130549.04999999999,-15425.82,15797.654999999999,-69260.265
7637.849999999999,30.645,11365.335,-474.16499999999996,-130538.34,-15421.724999999999,15812.685,-69249.555
7628.174999999999,20.384999999999998,11353.994999999999,-485.685,-130548.33,-15432.435,15805.529999999999,-69262.155
7626.105,20.79,11355.57,-484.46999999999997,-130546.75499999999,-15432.795,15801.795,-69268.815
7624.844999999999,22.095,11355.84,-483.255,-130547.11499999999,-15439.68,15800.76,-69273.45
7624.98,21.33,11352.96,-486.18,-130550.94,-15446.43,15804.81,-69272.86499999999
7627.049999999999,21.735,11353.5,-486.18,-130550.31,-15446.654999999999,15810.21,-69269.58
7625.745,18.044999999999998,11349.09,-492.21,-130557.915,-15459.974999999999,15807.105,-69272.37
7631.549999999999,21.779999999999998,11351.295,-491.13,-130557.87,-15472.845,15812.144999999999,-69268.41
7629.929999999999,19.259999999999998,11348.73,-493.38,-130558.76999999999,-15474.96,15814.529999999999,-69271.38
7625.5199999999995,16.83,11345.625,-496.44,-130559.44499999999,-15456.914999999999,15815.385,-69275.565
7628.759999999999,18.63,11345.67,-496.62,-130561.11,-15458.67,15815.835,-69275.43
7625.655,13.139999999999999,11340.945,-497.205,-130557.555,-15455.609999999999,15813.224999999999,-69279.255
7630.245,16.919999999999998,11343.195,-491.265,-130545.94499999999,-15435.449999999999,15817.814999999999,-69275.79
7623.179999999999,9.495,11334.33,-499.72499999999997,-130552.515,-15444.765,15814.529999999999,-69281.19
7623.719999999999,8.91,11334.914999999999,-499.59,-130554.495,-15465.24,15818.939999999999,-69277.905
7620.255,7.109999999999999,11334.42,-497.43,-130550.715,-15464.88,15817.455,-69281.595
7618.455,8.504999999999999,11333.43,-499.14,-130554.62999999999,-15468.3,15812.279999999999,-69286.635
7631.235,17.505,11340.27,-496.755,-130558.14,-15463.755,15812.144999999999,-69281.955
7634.384999999999,17.595,11341.215,-495.495,-130550.67,-15452.369999999999,15814.845,-69281.19
7633.08,17.595,11347.47,-484.83,-130530.87,-15424.605,15821.324999999999,-69280.02
7637.13,23.31,11354.085,-477.315,-130519.665,-15401.564999999999,15829.785,-69276.015
7632.405,17.55,11347.289999999999,-480.87,-130524.48,-15420.599999999999,15827.67,-69281.73
7625.429999999999,8.594999999999999,11338.154999999999,-489.825,-130531.59,-15438.914999999999,15823.619999999999,-69289.83
7629.03,9.674999999999999,11335.68,-499.185,-130543.78499999999,-15456.51,15827.939999999999,-69286.905
7630.785,8.685,11334.24,-505.48499999999996,-130554.855,-15473.88,15826.635,-69286.41
7629.21,3.51,11332.484999999999,-507.015,-130557.87,-15482.43,15822.224999999999,-69289.965
7631.91,5.22,11335.41,-502.42499999999995,-130553.86499999999,-15481.08,15825.644999999999,-69286.77
7626.0599999999995,-1.035,11330.234999999999,-504.765,-130552.73999999999,-15480.449999999999,15825.914999999999,-69289.73999999999
7625.969999999999,-1.3499999999999999,11338.38,-484.515,-130520.06999999999,-15446.699999999999,15833.474999999999,-69287.805
7623.45,-5.04,11338.154999999999,-478.89,-130505.985,-15428.519999999999,15831.404999999999,-69292.395
7618.7699999999995,-12.014999999999999,11332.215,-483.16499999999996,-130505.715,-15430.14,15828.119999999999,-69298.245
7614.405,-15.75,11328.39,-491.265,-130515.56999999999,-15446.115,15816.195,-69306.48
7614.405,-15.75,11328.39,-491.265,-130515.56999999999,-15446.115,15816.195,-69306.48
7614.405,-15.75,11328.39,-491.265,-130515.56999999999,-15446.115,15816.195,-69306.48
7614.405,-15.75,11328.39,-491.265,-130515.56999999999,-15446.115,15816.195,-69306.48
7614.405,-15.75,11328.39,-491.265,-130515.56999999999,-15446.115,15816.195,-69306.48
7614.405,-15.75,11328.39,-491.265,-130515.56999999999,-15446.115,15816.195,-69306.48
7614.405,-15.75,11328.39,-491.265,-130515.56999999999,-15446.115,15816.195,-69306.48
7614.405,-15.75,11328.39,-491.265,-130515.56999999999,-15446.115,15816.195,-69306.48
7614.405,-15.75,11328.39,-491.265,-130515.56999999999,-15446.115,15816.195,-69306.48
7614.405,-15.75,11328.39,-491.265,-130515.56999999999,-15446.115,15816.195,-69306.48
7614.405,-15.75,11328.39,-491.265,-130515.56999999999,-15446.115,15816.195,-69306.48
7614.405,-15.75,11328.39,-491.265,-130515.56999999999,-15446.115,15816.195,-69306.48
7614.405,-15.75,11328.39,-491.265,-130515.56999999999,-15446.115,15816.195,-69306.48
7614.405,-15.75,11328.39,-491.265,-130515.56999999999,-15446.115,15816.195,-69306.48
7614.405,-15.75,11328.39,-491.265,-130515.56999999999,-15446.115,15816.195,-69306.48
