ch_0,ch_1,ch_2,ch_3,ch_4,ch_5,ch_6,ch_7
6319.035,-25529.895,-5140.98,-22967.954999999998,-15304.23,-9929.52,6393.33,8441.595
6351.344999999999,-24737.67,-4269.465,-22697.235,-15289.83,-10039.14,6390.134999999999,8185.1849999999995
6634.665,-24645.105,-4115.79,-22639.59,-15174.63,-9926.1,6453.36,8332.605
6384.105,-25183.305,-4480.65,-23015.475,-15188.715,-9777.42,6649.514999999999,8508.285
5604.344999999999,-26068.59,-4628.565,-22913.954999999998,-15150.599999999999,-9598.455,6832.125,8289.18
4747.905,-27039.195,-5089.05,-22458.78,-14740.965,-9162.585,6978.6449999999995,7979.49
5509.98,-26339.805,-5398.695,-22629.105,-14619.689999999999,-9039.645,6990.66,7930.3949999999995
6835.86,-24358.364999999998,-4586.804999999999,-22880.879999999997,-15177.465,-9747.045,6680.429999999999,8045.054999999999
7638.4349999999995,-23431.59,-3969.72,-23076.045,-15899.265,-10628.414999999999,6401.295,8670.195
7251.57,-24718.454999999998,-4219.65,-23264.954999999998,-15906.555,-10513.755,6487.335,9133.335
6429.735,-25750.754999999997,-4124.474999999999,-22917.825,-15600.555,-10041.705,6563.429999999999,8879.265
5775.03,-25767.765,-3676.365,-22369.95,-15316.199999999999,-9650.475,6519.014999999999,8504.595
6161.3099999999995,-25748.594999999998,-3937.14,-22163.355,-14965.92,-9219.869999999999,6516.63,8661.645
7044.03,-25069.905,-4282.785,-22290.75,-14794.154999999999,-8997.93,6512.13,9022.23
7352.325,-23439.285,-3659.67,-22504.364999999998,-15042.734999999999,-9384.48,6371.28,9208.98
7502.49,-23321.16,-2580.39,-22141.754999999997,-15215.085,-9725.49,6321.554999999999,9377.64
7960.275,-23544.629999999997,-2374.38,-21589.425,-15028.695,-9576.0,6420.375,9621.63
8323.65,-23549.04,-2873.745,-21585.78,-14958.269999999999,-9368.01,6606.179999999999,10153.215
8125.065,-23918.805,-2729.475,-21615.704999999998,-15068.474999999999,-9224.955,6866.054999999999,10523.609999999999
7028.82,-25075.215,-2595.42,-21277.215,-14700.734999999999,-8629.47,7293.509999999999,10452.555
6553.3949999999995,-25623.0,-3054.645,-21290.13,-14018.13,-7764.66,7799.804999999999,10237.095
7475.985,-24080.94,-2552.4449999999997,-21255.524999999998,-13862.07,-7670.745,7834.455,9853.83
8598.42,-21811.95,-1579.905,-20599.965,-14214.015,-8487.81,7399.844999999999,9984.15
9407.115,-21199.815,-1563.615,-20855.204999999998,-14746.14,-9181.845,7266.509999999999,10800.494999999999
9343.484999999999,-21435.075,-1215.7649999999999,-20950.065,-15046.515,-9422.055,7323.344999999999,10907.1
9076.005,-22074.03,-1149.705,-20956.68,-15123.914999999999,-9333.359999999999,7471.9349999999995,10980.359999999999
8659.26,-22870.665,-1360.395,-21102.84,-15147.539999999999,-9091.619999999999,7691.3099999999995,11022.21
8032.679999999999,-23923.53,-1910.25,-21094.695,-14849.73,-8601.795,7968.285,10862.01
7514.594999999999,-24635.295,-3218.355,-21081.915,-14298.48,-7946.46,8272.71,10768.095
7546.7699999999995,-24924.69,-2795.13,-20835.585,-14111.234999999999,-7760.115,8422.335,10520.595
7895.655,-23519.295,-1873.62,-20603.565,-14318.595,-8106.344999999999,8343.315,10070.055
8711.595,-21349.934999999998,-1512.855,-21099.465,-14802.345,-8751.15,8160.705,10163.925
8941.635,-21640.454999999998,-1366.02,-21072.465,-14950.125,-8992.89,8130.554999999999,10463.895
8805.105,-22098.69,-1599.345,-21238.965,-15152.085,-9160.56,8175.554999999999,10534.545
8303.85,-23117.579999999998,-1990.665,-21583.215,-15286.68,-9038.654999999999,8409.779999999999,10557.63
6946.38,-24597.405,-1834.9199999999998,-21501.225,-15072.795,-8589.555,8658.449999999999,10133.955
6196.95,-25301.925,-2292.345,-21852.045,-14777.369999999999,-8127.63,8894.97,9696.779999999999
6668.415,-25030.575,-3128.13,-21792.42,-14627.88,-8010.945,8949.105,9403.154999999999
7109.28,-23857.02,-2284.605,-21123.09,-14730.75,-8441.19,8671.635,9129.375
7318.3949999999995,-23434.739999999998,-1971.855,-21505.094999999998,-14930.055,-8704.215,8640.765,9313.83
7820.73,-22952.879999999997,-2722.23,-21922.2,-15089.49,-9009.72,8650.485,9490.859999999999
8585.685,-22312.26,-2805.93,-22486.905,-15588.045,-9537.029999999999,8454.06,9607.545
8683.785,-22510.98,-2529.315,-22602.329999999998,-16014.599999999999,-10048.59,8208.135,9762.93
8102.745,-23654.204999999998,-2513.61,-22411.89,-16060.769999999999,-10100.52,8225.64,9887.85
7089.21,-25936.829999999998,-3405.915,-22205.16,-15570.539999999999,-9325.8,8563.994999999999,9883.755
5812.38,-27783.899999999998,-4829.535,-22319.235,-14703.21,-8169.12,9049.994999999999,9718.244999999999
5916.825,-25649.145,-4107.87,-22617.18,-14463.72,-8078.849999999999,8986.545,8881.65
7450.605,-22299.03,-2208.105,-22367.34,-15037.965,-9274.005,8187.344999999999,8437.185
8434.755,-21382.469999999998,-1594.575,-22548.239999999998,-15687.404999999999,-10219.635,7618.1849999999995,9099.225
8164.53,-22428.989999999998,-1579.815,-22458.015,-15742.619999999999,-10230.93,7620.4349999999995,9472.545
7446.285,-23514.434999999998,-1842.2549999999999,-22273.379999999997,-15428.744999999999,-9785.97,7778.969999999999,9390.779999999999
5545.304999999999,-26000.864999999998,-2016.99,-21879.135,-14824.08,-8841.24,8218.395,9152.775
4364.19,-28105.515,-2732.13,-21764.16,-13962.42,-7578.99,8865.494999999999,8736.345
6276.285,-26214.93,-4441.41,-22309.29,-13653.269999999999,-7467.525,8797.23,8771.94
8912.565,-21543.84,-4199.175,-23000.219999999998,-14668.965,-9067.545,8000.91,9447.255
9376.47,-20982.465,-2040.615,-22802.489999999998,-15708.555,-10366.335,7561.844999999999,10038.96
8543.43,-22095.18,-1231.83,-22450.41,-15601.14,-10282.815,7579.799999999999,9845.64
8039.429999999999,-22788.18,-1421.1,-22247.415,-15241.68,-9841.815,7742.5199999999995,9711.855
7720.335,-23171.399999999998,-1543.0049999999999,-22007.61,-14963.31,-9501.119999999999,7841.295,9606.285
7391.565,-23803.695,-1692.675,-21891.915,-14876.73,-9234.27,7968.509999999999,9622.574999999999
6153.48,-25908.21,-1808.55,-21914.504999999997,-14785.695,-8705.385,8333.145,9727.335
5033.5199999999995,-28142.504999999997,-3654.0,-22187.925,-14041.89,-7561.53,8968.68,9681.75
6116.355,-26218.844999999998,-4856.13,-22531.004999999997,-13368.195,-7035.929999999999,9092.565,9182.789999999999
8150.4,-21302.28,-2465.865,-22123.305,-14147.01,-8482.994999999999,8250.885,8868.51
9201.779999999999,-20378.745,-239.355,-21675.149999999998,-15298.289999999999,-9927.18,7643.88,9700.83
9050.265,-21605.489999999998,-692.9549999999999,-21958.515,-15426.99,-9826.605,7782.974999999999,10350.494999999999
8589.465,-22336.875,-917.505,-21786.12,-15180.66,-9429.029999999999,7994.969999999999,10326.645
8273.52,-22876.92,-1123.6499999999999,-21499.739999999998,-14987.205,-9081.359999999999,8184.87,10294.785
7748.73,-23748.975,-1036.395,-21298.14,-14736.375,-8566.38,8455.725,10222.109999999999
7285.1849999999995,-24703.335,-1005.2099999999999,-21377.52,-14520.644999999999,-8072.054999999999,8753.039999999999,10197.045
7649.28,-24270.344999999998,-2160.045,-21809.79,-14811.66,-8241.029999999999,8809.695,10319.31
8179.695,-22737.87,-2048.265,-22047.93,-15244.875,-8779.77,8608.41,10176.074999999999
8682.21,-22056.614999999998,-1283.22,-22057.92,-15272.595,-8932.994999999999,8482.635,10314.225
8579.789999999999,-22006.98,-748.665,-21537.495,-15062.265,-8852.31,8486.01,10246.185
8276.13,-22470.704999999998,-611.1,-21066.704999999998,-14975.82,-8764.965,8562.69,10229.265
7750.349999999999,-23417.19,-648.675,-21164.04,-15049.619999999999,-8643.33,8711.235,10200.285
7170.615,-24393.555,-1157.715,-21410.37,-15067.845,-8418.96,8977.005,10154.609999999999
7301.025,-23888.79,-1712.115,-21331.079999999998,-14950.8,-8261.369999999999,9117.81,9922.275
7924.1849999999995,-22791.69,-1119.465,-21253.59,-15044.22,-8482.275,8961.164999999999,9800.64
7853.3099999999995,-23458.725,-1293.165,-21469.05,-15197.625,-8593.56,9006.885,10075.32
7405.5599999999995,-23913.405,-2993.895,-21951.629999999997,-14977.305,-8094.465,9468.225,10094.13
7687.08,-22890.555,-1944.1799999999998,-22090.545,-15242.31,-8446.545,9295.56,9530.73
8457.21,-21859.065,-846.0899999999999,-21808.215,-15766.47,-9423.765,8768.654999999999,9601.56
8609.805,-22116.42,-1056.0149999999999,-21965.895,-16140.465,-9843.885,8756.55,10041.57
7980.4349999999995,-23008.59,-1115.82,-21980.07,-15975.72,-9503.279999999999,8980.65,9805.05
7563.509999999999,-23508.18,-1714.95,-21943.8,-15708.51,-9152.91,9167.85,9625.994999999999
7279.65,-24143.085,-2311.065,-22266.045,-15758.46,-9177.255,9281.565,9575.505
6855.03,-25001.415,-2375.055,-22314.015,-15690.869999999999,-9200.205,9313.605,9346.275
6944.804999999999,-24818.715,-2564.2799999999997,-22468.454999999998,-15697.215,-9262.664999999999,9282.734999999999,9227.88
7349.355,-23514.704999999998,-2365.65,-22698.45,-15962.894999999999,-9691.875,9007.425,8961.57
7484.355,-22931.64,-1711.8899999999999,-22454.28,-15999.21,-9958.77,8746.56,8858.295
7540.38,-23435.145,-2259.18,-22411.079999999998,-15958.17,-9950.175,8827.695,9090.945
7341.344999999999,-23868.045,-2166.39,-22672.215,-16051.32,-9995.895,8915.535,9051.21
6859.125,-24244.92,-2145.7799999999997,-22988.879999999997,-16112.744999999999,-9954.765,9012.105,8907.885
5850.36,-25726.77,-2552.04,-23011.785,-15774.885,-9432.045,9339.885,8758.89
5401.889999999999,-26174.295,-3926.6099999999997,-23170.004999999997,-15241.005,-8821.8,9702.9,8392.949999999999
6189.165,-23764.454999999998,-3291.2549999999997,-23387.219999999998,-15322.14,-9206.145,9315.585,7813.035
7223.625,-22760.954999999998,-1570.905,-22508.504999999997,-15571.755,-10059.345,8663.805,8080.605
7690.7699999999995,-23183.055,-2163.555,-23012.415,-16220.295,-10750.815,8584.695,8812.664999999999
7373.79,-23414.219999999998,-2422.125,-23286.465,-16319.43,-10796.805,8641.574999999999,8652.42
7047.495,-23863.77,-2247.705,-23048.37,-16063.244999999999,-10534.365,8665.695,8478.945
5988.285,-25461.765,-2477.97,-22998.239999999998,-15829.515,-10094.039999999999,8911.035,8324.19
5112.764999999999,-26877.78,-3191.895,-23098.68,-15604.019999999999,-9637.92,9247.185,8185.679999999999
5864.76,-26205.795,-4465.125,-23324.895,-15508.755,-9641.34,9253.664999999999,8285.039999999999
7056.2699999999995,-24085.89,-4189.365,-23720.76,-15937.38,-10350.09,8866.71,8228.385
7564.679999999999,-22374.09,-2374.335,-23917.905,-16371.269999999999,-11024.73,8471.07,8222.175
7308.495,-23283.405,-2395.89,-23669.864999999998,-16175.835,-10810.395,8586.72,8422.244999999999
6851.295,-23798.655,-2324.3399999999997,-23278.23,-15974.189999999999,-10635.029999999999,8602.83,8151.884999999999
6709.905,-24083.594999999998,-2428.515,-23354.145,-16014.465,-10656.63,8565.345,8114.445
6412.724999999999,-24486.885,-2490.5699999999997,-23350.815,-16012.035,-10599.975,8614.215,8084.07
5759.775,-25110.225,-2725.02,-23222.79,-15674.31,-10183.41,8834.355,7884.8099999999995
6018.21,-25216.155,-3322.17,-23337.045,-15555.195,-9944.414999999999,8991.585,7889.355
6569.1449999999995,-25039.125,-3687.12,-23605.065,-15662.205,-10067.49,8875.305,8093.61
6605.009999999999,-24787.62,-3906.0899999999997,-23908.23,-15972.615,-10431.855,8723.115,8254.619999999999
6419.61,-24533.1,-3383.2799999999997,-23960.565,-16153.154999999999,-10689.84,8612.324999999999,8028.719999999999
6437.474999999999,-24395.489999999998,-2828.205,-23868.225,-16110.494999999999,-10762.65,8482.23,7904.745
6295.365,-24651.405,-2480.805,-23397.12,-16056.314999999999,-10804.14,8387.685,7847.46
5938.65,-25515.045,-2407.68,-23206.545,-16050.375,-10717.965,8469.72,7867.3949999999995
4792.905,-27087.66,-2973.33,-23435.504999999997,-16056.99,-10340.955,8842.68,7754.759999999999
4069.17,-27454.905,-4165.605,-23664.015,-15531.119999999999,-9615.555,9255.824999999999,7288.38
5064.929999999999,-25789.725,-4329.045,-23916.78,-15259.814999999999,-9593.414999999999,9049.635,7207.5599999999995
6258.42,-24120.495,-3351.015,-23694.3,-15817.095,-10599.48,8469.585,7336.485
6979.1849999999995,-23855.489999999998,-2888.46,-23882.399999999998,-16476.524999999998,-11290.41,8212.32,7850.835
7288.245,-23762.879999999997,-2891.43,-24347.79,-16737.39,-11471.355,8155.3949999999995,8165.474999999999
6880.1849999999995,-24444.675,-2811.5099999999998,-23952.285,-16547.175,-11363.715,8129.745,8003.745
6651.675,-24470.594999999998,-3008.475,-23816.565,-16423.335,-11263.994999999999,8143.605,7886.34
6399.36,-24577.92,-2926.89,-23825.204999999998,-16378.65,-11138.85,8211.735,7795.259999999999
5940.585,-25562.385,-3035.3399999999997,-23789.835,-16292.744999999999,-10888.695,8362.485,7790.804999999999
5466.96,-26923.14,-3686.3999999999996,-23911.515,-16172.234999999999,-10544.715,8617.545,7803.0
5574.33,-26926.335,-4443.57,-24056.1,-15946.425,-10337.445,8721.945,7687.485
6253.785,-24778.125,-4435.29,-24053.219999999998,-15869.115,-10543.5,8494.154999999999,7528.545
6321.195,-23531.895,-3002.265,-23882.94,-16175.295,-11073.42,8149.7699999999995,7354.259999999999
6035.3099999999995,-24177.42,-2414.6549999999997,-23691.015,-16343.73,-11247.029999999999,8073.2699999999995,7378.74
5599.844999999999,-25160.985,-2754.855,-23755.59,-16275.869999999999,-11002.14,8251.02,7386.255
4245.4349999999995,-27139.004999999997,-3338.19,-23418.989999999998,-15837.119999999999,-10286.55,8674.199999999999,7196.625
3839.9849999999997,-28041.21,-4722.3,-23662.934999999998,-15368.445,-9569.835,9155.295,6957.9
5629.1849999999995,-25430.67,-4621.724999999999,-24841.62,-15927.345,-10219.005,8811.81,7043.219999999999
7186.455,-23085.225,-3124.71,-24570.675,-16762.274999999998,-11643.164999999999,7889.264999999999,7400.88
7144.11,-23621.219999999998,-2646.18,-24152.489999999998,-16970.445,-12013.47,7686.179999999999,7772.759999999999
6678.99,-24368.355,-3044.745,-24232.364999999998,-16868.565,-11771.46,7867.98,7770.285
6367.275,-24661.62,-2971.665,-24084.899999999998,-16649.505,-11499.57,7965.945,7600.59
6142.005,-25023.105,-2904.0299999999997,-23923.079999999998,-16527.69,-11309.625,8075.79,7540.424999999999
5948.82,-25534.575,-3226.815,-24091.695,-16542.809999999998,-11186.865,8222.265,7562.835
5659.0199999999995,-25903.26,-4454.054999999999,-24716.07,-16334.055,-10787.58,8485.605,7612.469999999999
5110.695,-26196.344999999998,-4759.11,-24610.41,-16055.189999999999,-10444.59,8604.315,7290.0
5023.08,-25972.829999999998,-3744.99,-23806.26,-15981.029999999999,-10606.14,8348.265,6851.07
5788.304999999999,-25100.504999999997,-3295.7549999999997,-23937.344999999998,-16252.605,-11042.91,8104.455,7061.219999999999
6138.8099999999995,-24699.555,-3121.38,-24253.739999999998,-16638.39,-11484.314999999999,7929.54,7265.745
5916.78,-24837.344999999998,-3307.14,-24254.91,-16655.94,-11508.255,7877.88,7264.035
5943.599999999999,-25191.27,-3305.115,-24155.774999999998,-16619.625,-11459.25,7893.405,7326.405
